#Date: 2022-07-14 13:01:33
#Source: Sample12.Sample.Raw

#Header Information:
Alias=Sample12.Sample.Raw
Data Type=
X Axis Unit=nm
Y Axis Unit=A
X Start Value=600
X End Value=400
X Interval=-1
Number of Points=201
Description=IF499nm 0.1nm
Comment=
Instrument Model=Lambda 1050+
Instrument Serial=1060L2011032
Software Revision=PerkinElmer UV WinLab 7.1.0.68 / 2.02.11 Lambda 900 UV/VIS/NIR, May 23 2018 11:23:04
Scan Speed (nm/min)=0
Response (s)=0
Slit Width (nm)=3350/servo 1800.8/servo 860.8/0.1
Band Width (nm)=0
Sensitivity=0
Lamps=UV/VIS
Cycle Time (s)=1
Cycle Number=1
Cycles =1
Accessory=CommonBeamDepol,RBeamAtt,SBeamAtt,uv/vis/nir detector, TDS WB InGaAs Detector
Cell Number=0
Auto Samp=0
Actual Peltier Temperature (°C)=0
Wavelength (nm)=0
UV/VIS Slit Mode=Program
NIR Slit Mode= 
NIR Slit Width=0
UV/VIS Integration Time (s)=3350/0.2 1800.8/0.2 860.8/0.2
NIR Integration Time (s)=0
UV/VIS Gain=0
NIR Gain=0
Baseline= 
Baseline Date= 
Zero-T Correction= 
Autozero Offset=0
Reflectance Correction= 
Monochromator Change at (nm)=860.8
Lamp change at (nm)=319.2
Detector Change at (nm)=1800.8 860.8
Sample Beam Position=Front
Common Beam Mask=100
Common Beam Depolarizer=on
Attenuators=S:100 R:100
Double Polarizer/Depolarizer= 
Sipper Sample Time (s)=0
Sipper Delay Time (s)=0
Sipper Flush/Return Time (s)=0
Sipper Flush/Return= 
AutoSampler Depth (mm)=0
AutoSampler Return Position= 
Cell Changer Type= 
Cell Changer Carousel= 
Cell Changer Reference Cell=0
External Lamp= 
External Detector= 
External Probe Temperature (°C)=0
Target Peltier Temperature (°C)=0
URA Angle (°)=0
URA Spot Width (mm)=0
URA Spot Length (mm)=0
URA Relative Mode= 
URA Transmittance Mode= 
URA Serial Number= 
Polarizer Pathlength= 
Sample Pathlength=0
Baseline Pathlength=0
External Probe Temperature Cycles(°C)=
Actual Peltier Temperature Cycles (°C)=
X Position=0
Y Position=0
Analyst=Michael Matus
Modified=2022-07-14 12:16:09
Modification=Created as New Dataset
Parameters=
Comments=IF499nm 0.1nm

#Data:
nm=A
600=10
599=10
598=10
597=10
596=10
595=10
594=10
593=10
592=10
591=10
590=10
589=10
588=10
587=10
586=10
585=10
584=10
583=10
582=10
581=10
580=10
579=10
578=10
577=10
576=10
575=10
574=10
573=10
572=10
571=10
570=10
569=10
568=10
567=4.34755421659937
566=10
565=10
564=10
563=4.54157217204399
562=10
561=10
560=10
559=10
558=10
557=10
556=10
555=10
554=10
553=10
552=10
551=10
550=10
549=10
548=10
547=10
546=10
545=10
544=10
543=10
542=10
541=10
540=10
539=10
538=10
537=10
536=10
535=10
534=10
533=10
532=10
531=10
530=10
529=10
528=10
527=10
526=10
525=10
524=4.20544924551227
523=3.7889655975805
522=3.49133164220669
521=3.26128022921552
520=3.04127520069009
519=2.81654995915758
518=2.62161151930794
517=2.42482564067135
516=2.22675841452201
515=2.03044742649564
514=1.83904260168302
513=1.65364840407747
512=1.47894583153652
511=1.31642961092055
510=1.16755612840103
509=1.03454550694201
508=0.920445898351607
507=0.824440069326118
506=0.747538315141853
505=0.689456461835589
504=0.648691958569748
503=0.623425311260206
502=0.609892315809555
501=0.604578221592632
500=0.610358943810323
499=0.627565225498709
498=0.658615111672567
497=0.708116785991171
496=0.776343574410346
495=0.863781007022318
494=0.97352160231507
493=1.0994803363851
492=1.23656853712429
491=1.39177634649136
490=1.5558052307215
489=1.72634341565163
488=1.8988987332123
487=2.06624246439406
486=2.23451283664456
485=2.40620440013828
484=2.60464536047253
483=2.79950471212376
482=3.01969309559126
481=3.54754751440732
480=4.45920330441963
479=3.73895711408788
478=4.07462974593256
477=10
476=10
475=10
474=10
473=10
472=10
471=10
470=10
469=10
468=10
467=10
466=10
465=4.53861879714784
464=3.97182145278683
463=3.79247772697481
462=3.70100813564349
461=3.62739178694363
460=3.59222127065553
459=3.61299263105502
458=3.56067493772673
457=3.48808852886734
456=3.46006535148924
455=3.48431974775107
454=3.53266469854084
453=3.50184241186912
452=3.49414465126539
451=3.53367924623944
450=3.60905012663321
449=3.59309964012553
448=3.66425099028328
447=3.54554275065128
446=3.50900710307465
445=3.50572986828218
444=10
443=10
442=4.19888739305349
441=4.5517849134004
440=4.67700349169626
439=4.01192908682521
438=3.98618277065201
437=4.02961589800062
436=4.47891307580463
435=4.59945380323338
434=4.58251133139698
433=4.02786889834239
432=4.03769568670902
431=10
430=10
429=4.11117039245886
428=3.81523684752696
427=5.0431001811623
426=10
425=4.99528893705919
424=4.12056822831157
423=4.53405894619997
422=3.80652613330582
421=4.00518927047149
420=4.4516224205733
419=4.2636557908688
418=4.21740409687852
417=3.98715169638644
416=4.91712680284023
415=10
414=10
413=10
412=10
411=10
410=10
409=3.89965417394067
408=3.5726366564973
407=4.26025517744271
406=3.91950933473487
405=3.93137428494806
404=4.22800897395118
403=3.90218426303092
402=3.50438805720454
401=3.82749983569156
400=5.51532577501229
