##TITLE= WG4 88 #3
##JCAMP-DX= 4.24
##DATA TYPE= UV/VIS SPECTRUM
##ORIGIN= Exported PE Spectrum Data File
##OWNER= Michael Matus
##DATE= 22/07/08
##TIME= 12:42:32.00
##DELTAX= -5.000000
##XUNITS= NANOMETERS
##YUNITS= TRANSMITTANCE
##XFACTOR= 1.00
##YFACTOR= 0.00000011920928955078
##FIRSTX= 1600.00
##LASTX= 250.00
##NPOINTS= 271
##FIRSTY= 89.490256
##MAXY= 0.896840
##MINY= 0.000027
##XYDATA= (X++(Y..Y))
  1600.000000   7506986   7507071   7507617   7508064   7507892  
  1575.000000   7507507   7507599   7507719   7508407   7507590  
  1550.000000   7507315   7508003   7507861   7508161   7507886  
  1525.000000   7508593   7508576   7508690   7508111   7507456  
  1500.000000   7507624   7507991   7507493   7507754   7506716  
  1475.000000   7506443   7506309   7506055   7505647   7505375  
  1450.000000   7505052   7504754   7504045   7503230   7502676  
  1425.000000   7502191   7502091   7501984   7502474   7503319  
  1400.000000   7504399   7505258   7505958   7506886   7507712  
  1375.000000   7507876   7507139   7507868   7507807   7508066  
  1350.000000   7507394   7506907   7506852   7506088   7505572  
  1325.000000   7506155   7506133   7506502   7506422   7506016  
  1300.000000   7505823   7505754   7505551   7505321   7505027  
  1275.000000   7504819   7505022   7505071   7505234   7505264  
  1250.000000   7505303   7505236   7504595   7504459   7504571  
  1225.000000   7504650   7505230   7505452   7504941   7504626  
  1200.000000   7504438   7504756   7504875   7504961   7505069  
  1175.000000   7505383   7505322   7505480   7505166   7505148  
  1150.000000   7504709   7504833   7505319   7505355   7505248  
  1125.000000   7505179   7505149   7505127   7505110   7504987  
  1100.000000   7504857   7504608   7504639   7504795   7504858  
  1075.000000   7505110   7505263   7505182   7505258   7505304  
  1050.000000   7505218   7505373   7505489   7505416   7505550  
  1025.000000   7505671   7505807   7506062   7506054   7506025  
  1000.000000   7506226   7506452   7506395   7505967   7505250  
   975.000000   7504197   7503457   7503306   7503158   7502859  
   950.000000   7502760   7503005   7502893   7502835   7502520  
   925.000000   7502839   7503052   7503213   7503229   7503101  
   900.000000   7503286   7503184   7503036   7502643   7502473  
   875.000000   7502556   7502170   7502132   7493160   7519688  
   850.000000   7501239   7523241   7510372   7510727   7501370  
   825.000000   7498861   7505103   7504421   7512686   7505966  
   800.000000   7496092   7505969   7508419   7508600   7503595  
   775.000000   7499836   7501956   7504503   7505586   7504507  
   750.000000   7503100   7502432   7505873   7503684   7502557  
   725.000000   7503972   7500732   7500011   7501308   7503277  
   700.000000   7502453   7497811   7500283   7497538   7494128  
   675.000000   7494510   7496112   7493146   7494689   7490700  
   650.000000   7492516   7492448   7488528   7487997   7485226  
   625.000000   7485903   7485738   7487172   7485915   7485234  
   600.000000   7484777   7483190   7482567   7485662   7484802  
   575.000000   7479665   7479288   7484832   7480740   7480848  
   550.000000   7479276   7477402   7475398   7477013   7477473  
   525.000000   7472693   7473854   7474421   7473856   7473710  
   500.000000   7471823   7474196   7473032   7472171   7468884  
   475.000000   7466435   7463644   7465206   7464081   7465751  
   450.000000   7460029   7460756   7457509   7454249   7458070  
   425.000000   7453167   7449425   7448946   7440425   7438131  
   400.000000   7431371   7429459   7419664   7402063   7376930  
   375.000000   7353988   7355277   7310199   7259629   7176787  
   350.000000   7079634   6912347   6660747   6240900   5540213  
   325.000000   4409441   2834681   1147041   180881   04369  
   300.000000   00519   00596   00328   00293   00328  
   275.000000   00276   00294   00268   00225   00337  
   250.000000   00354  
##END= 
