Created as New Dataset,blank 0,1 %
nm,%T
900.0,105.79
899.0,105.01
898.0,103.98
897.0,105.63
896.0,105.16
895.0,101.49
894.0,104.98
893.0,104.77
892.0,103.10
891.0,102.19
890.0,104.87
889.0,105.42
888.0,103.86
887.0,102.94
886.0,106.31
885.0,105.29
884.0,103.41
883.0,103.86
882.0,103.66
881.0,104.34
880.0,102.01
879.0,105.14
878.0,105.37
877.0,102.89
876.0,107.45
875.0,107.58
874.0,103.83
873.0,102.96
872.0,106.61
871.0,102.88
870.0,102.24
869.0,106.33
868.0,106.80
867.0,109.45
866.0,107.75
865.0,106.01
864.0,107.18
863.0,102.39
862.0,106.81
861.0,107.40
860.0,105.07
859.0,97.63
858.0,103.47
857.0,97.94
856.0,102.90
855.0,100.72
854.0,100.14
853.0,97.18
852.0,100.81
851.0,100.95
850.0,103.25
849.0,101.26
848.0,99.79
847.0,103.61
846.0,97.08
845.0,100.88
844.0,97.97
843.0,100.35
842.0,102.15
841.0,100.45
840.0,98.05
839.0,100.29
838.0,97.79
837.0,97.99
836.0,99.24
835.0,102.52
834.0,101.07
833.0,100.17
832.0,99.40
831.0,100.42
830.0,99.63
829.0,101.88
828.0,100.23
827.0,100.18
826.0,98.59
825.0,100.62
824.0,101.42
823.0,99.45
822.0,98.87
821.0,100.72
820.0,101.32
819.0,100.87
818.0,99.49
817.0,100.13
816.0,100.02
815.0,98.72
814.0,99.21
813.0,100.20
812.0,99.35
811.0,100.01
810.0,100.72
809.0,99.18
808.0,100.61
807.0,101.69
806.0,100.16
805.0,99.75
804.0,99.98
803.0,99.81
802.0,100.45
801.0,99.05
800.0,99.70
799.0,100.02
798.0,100.20
797.0,100.95
796.0,100.13
795.0,101.65
794.0,101.47
793.0,100.64
792.0,100.47
791.0,100.44
790.0,99.96
789.0,101.00
788.0,100.12
787.0,99.92
786.0,101.68
785.0,100.76
784.0,100.55
783.0,100.40
782.0,100.29
781.0,100.51
780.0,100.71
779.0,99.30
778.0,100.94
777.0,101.01
776.0,99.52
775.0,99.81
774.0,102.24
773.0,102.06
772.0,100.34
771.0,99.00
770.0,99.44
769.0,101.58
768.0,101.25
767.0,99.87
766.0,100.01
765.0,100.25
764.0,100.33
763.0,100.71
762.0,100.89
761.0,99.74
760.0,99.32
759.0,100.57
758.0,101.97
757.0,101.41
756.0,99.95
755.0,100.49
754.0,100.95
753.0,100.27
752.0,99.76
751.0,100.16
750.0,100.19
749.0,99.64
748.0,99.33
747.0,100.93
746.0,100.61
745.0,99.63
744.0,100.64
743.0,101.30
742.0,100.81
741.0,99.56
740.0,98.70
739.0,99.49
738.0,99.60
737.0,99.52
736.0,100.40
735.0,99.43
734.0,98.82
733.0,99.16
732.0,99.83
731.0,100.08
730.0,98.99
729.0,98.46
728.0,100.16
727.0,100.38
726.0,98.45
725.0,98.44
724.0,99.73
723.0,100.95
722.0,100.23
721.0,100.42
720.0,101.14
719.0,99.96
718.0,99.98
717.0,100.04
716.0,100.23
715.0,100.93
714.0,100.02
713.0,99.33
712.0,100.64
711.0,100.10
710.0,99.69
709.0,100.17
708.0,100.13
707.0,99.29
706.0,99.41
705.0,99.51
704.0,100.18
703.0,100.17
702.0,99.57
701.0,101.02
700.0,102.33
699.0,100.48
698.0,100.30
697.0,100.49
696.0,101.64
695.0,100.85
694.0,99.03
693.0,100.09
692.0,99.70
691.0,99.23
690.0,99.33
689.0,100.98
688.0,100.10
687.0,99.26
686.0,98.46
685.0,99.98
684.0,100.49
683.0,99.47
682.0,99.57
681.0,100.51
680.0,100.81
679.0,100.43
678.0,100.60
677.0,101.45
676.0,99.92
675.0,100.89
674.0,100.48
673.0,99.58
672.0,100.31
671.0,99.72
670.0,99.71
669.0,99.98
668.0,99.93
667.0,100.33
666.0,101.45
665.0,98.71
664.0,99.03
663.0,98.51
662.0,98.75
661.0,98.54
660.0,99.38
659.0,101.18
658.0,100.31
657.0,99.97
656.0,100.47
655.0,100.63
654.0,99.46
653.0,97.67
652.0,99.00
651.0,100.00
650.0,99.98
649.0,99.65
648.0,101.34
647.0,99.86
646.0,99.64
645.0,100.02
644.0,99.96
643.0,100.14
642.0,100.54
641.0,101.36
640.0,99.91
639.0,98.52
638.0,99.65
637.0,100.03
636.0,99.34
635.0,99.08
634.0,99.12
633.0,100.09
632.0,99.80
631.0,100.47
630.0,100.76
629.0,100.29
628.0,99.71
627.0,98.92
626.0,100.88
625.0,99.43
624.0,100.03
623.0,98.82
622.0,99.72
621.0,99.65
620.0,100.30
619.0,99.76
618.0,99.98
617.0,99.19
616.0,100.42
615.0,100.54
614.0,100.47
613.0,101.03
612.0,100.68
611.0,98.95
610.0,101.21
609.0,100.33
608.0,100.21
607.0,100.21
606.0,98.72
605.0,101.16
604.0,99.81
603.0,99.72
602.0,100.22
601.0,101.18
600.0,100.48
599.0,99.76
598.0,101.32
597.0,100.98
596.0,99.68
595.0,100.39
594.0,100.48
593.0,101.90
592.0,99.80
591.0,100.45
590.0,101.35
589.0,100.21
588.0,98.77
587.0,100.41
586.0,101.93
585.0,98.43
584.0,100.64
583.0,101.99
582.0,99.51
581.0,99.37
580.0,98.62
579.0,98.97
578.0,100.17
577.0,98.85
576.0,99.97
575.0,100.81
574.0,101.09
573.0,103.25
572.0,101.30
571.0,100.64
570.0,98.93
569.0,99.80
568.0,101.49
567.0,100.26
566.0,99.18
565.0,100.80
564.0,100.81
563.0,99.77
562.0,100.69
561.0,99.73
560.0,99.01
559.0,100.22
558.0,100.57
557.0,99.86
556.0,99.53
555.0,100.80
554.0,100.35
553.0,97.88
552.0,100.10
551.0,100.35
550.0,100.29
549.0,100.49
548.0,99.34
547.0,100.91
546.0,100.50
545.0,98.73
544.0,100.97
543.0,101.05
542.0,100.55
541.0,100.59
540.0,100.86
539.0,100.39
538.0,100.23
537.0,100.04
536.0,100.88
535.0,100.53
534.0,99.07
533.0,100.55
532.0,100.37
531.0,100.25
530.0,99.55
529.0,101.05
528.0,101.54
527.0,99.46
526.0,99.22
525.0,100.57
524.0,99.98
523.0,98.52
522.0,98.78
521.0,99.69
520.0,99.50
519.0,98.20
518.0,99.55
517.0,100.85
516.0,100.35
515.0,99.49
514.0,100.28
513.0,100.97
512.0,99.79
511.0,99.95
510.0,100.82
509.0,100.20
508.0,99.53
507.0,100.73
506.0,100.59
505.0,100.17
504.0,100.14
503.0,99.86
502.0,100.63
501.0,100.15
500.0,99.35
499.0,99.97
498.0,100.32
497.0,99.93
496.0,100.13
495.0,99.81
494.0,99.77
493.0,100.52
492.0,99.87
491.0,99.02
490.0,99.64
489.0,99.76
488.0,99.30
487.0,99.94
486.0,100.65
485.0,100.49
484.0,99.35
483.0,99.77
482.0,99.66
481.0,100.10
480.0,100.41
479.0,100.49
478.0,101.49
477.0,100.25
476.0,99.76
475.0,101.44
474.0,100.96
473.0,100.98
472.0,100.80
471.0,99.73
470.0,99.82
469.0,100.20
468.0,99.38
467.0,99.95
466.0,98.99
465.0,98.74
464.0,99.79
463.0,99.38
462.0,99.39
461.0,99.67
460.0,99.88
459.0,100.42
458.0,100.55
457.0,100.58
456.0,99.60
455.0,99.26
454.0,100.07
453.0,99.46
452.0,99.13
451.0,99.26
450.0,99.16
449.0,98.91
448.0,99.25
447.0,99.39
446.0,100.17
445.0,100.13
444.0,99.71
443.0,100.64
442.0,99.74
441.0,97.96
440.0,100.70
439.0,100.18
438.0,99.82
437.0,99.54
436.0,99.53
435.0,99.78
434.0,99.33
433.0,99.41
432.0,100.95
431.0,100.01
430.0,99.50
429.0,99.83
428.0,101.30
427.0,101.58
426.0,100.09
425.0,100.64
424.0,100.82
423.0,100.22
422.0,100.55
421.0,99.80
420.0,100.49
419.0,100.28
418.0,98.38
417.0,98.65
416.0,100.92
415.0,99.57
414.0,99.67
413.0,100.77
412.0,100.37
411.0,100.22
410.0,99.51
409.0,99.25
408.0,99.51
407.0,99.64
406.0,100.57
405.0,99.83
404.0,99.22
403.0,99.44
402.0,101.05
401.0,101.78
400.0,101.70
399.0,98.98
398.0,99.10
397.0,100.33
396.0,98.62
395.0,100.00
394.0,100.23
393.0,100.55
392.0,99.80
391.0,100.16
390.0,100.11
389.0,100.14
388.0,98.81
387.0,99.46
386.0,100.17
385.0,98.84
384.0,98.84
383.0,98.39
382.0,99.02
381.0,100.37
380.0,98.70
379.0,100.30
378.0,94.58
377.0,101.19
376.0,100.49
375.0,99.41
374.0,97.32
373.0,99.01
372.0,101.36
371.0,101.65
370.0,100.47
369.0,100.30
368.0,101.47
367.0,99.33
366.0,101.64
365.0,100.07
364.0,100.34
363.0,101.54
362.0,99.42
361.0,102.00
360.0,100.35
359.0,100.00
358.0,99.58
357.0,100.71
356.0,101.12
355.0,99.72
354.0,99.54
353.0,101.06
352.0,101.44
351.0,99.53
350.0,99.90
349.0,100.96
348.0,100.08
347.0,100.23
346.0,100.28
345.0,101.59
344.0,99.77
343.0,98.69
342.0,101.87
341.0,100.96
340.0,98.56
339.0,99.83
338.0,101.17
337.0,101.04
336.0,99.39
335.0,98.38
334.0,100.19
333.0,100.91
332.0,99.67
331.0,99.57
330.0,101.75
329.0,99.92
328.0,100.29
327.0,101.22
326.0,101.67
325.0,101.66
324.0,100.25
323.0,101.43
322.0,101.21
321.0,101.26
320.0,101.95
319.0,100.50
318.0,100.69
317.0,100.12
316.0,100.25
315.0,98.14
314.0,99.65
313.0,100.26
312.0,101.13
311.0,98.84
310.0,98.79
309.0,99.09
308.0,100.09
307.0,100.73
306.0,100.62
305.0,100.97
304.0,100.70
303.0,98.82
302.0,99.48
301.0,99.24
300.0,100.33
299.0,99.31
298.0,99.34
297.0,100.25
296.0,99.41
295.0,98.68
294.0,99.78
293.0,99.63
292.0,99.66
291.0,99.08
290.0,99.82
289.0,99.98
288.0,99.18
287.0,99.70
286.0,101.27
285.0,100.07
284.0,100.61
283.0,100.60
282.0,99.58
281.0,100.48
280.0,99.68
279.0,98.95
278.0,100.35
277.0,100.93
276.0,99.76
275.0,99.13
274.0,99.40
273.0,99.62
272.0,99.26
271.0,99.43
270.0,100.19
269.0,99.70
268.0,99.24
267.0,99.58
266.0,100.54
265.0,100.56
264.0,99.67
263.0,99.25
262.0,99.93
261.0,99.32
260.0,99.03
259.0,100.82
258.0,100.67
257.0,99.60
256.0,99.46
255.0,99.55
254.0,99.34
253.0,99.22
252.0,99.59
251.0,100.10
250.0,99.82
