##TITLE= IF 499nm 100 %
##JCAMP-DX= 4.24
##DATA TYPE= UV/VIS SPECTRUM
##ORIGIN= Exported PE Spectrum Data File
##OWNER= Michael Matus
##DATE= 22/07/14
##TIME= 06:14:52.00
##DELTAX= -1.000000
##XUNITS= NANOMETERS
##YUNITS= TRANSMITTANCE
##XFACTOR= 1.00
##YFACTOR= 0.00000000023841857910
##FIRSTX= 900.00
##LASTX= 250.00
##NPOINTS= 651
##FIRSTY= -0.001879
##MAXY= 0.246506
##MINY= -0.000435
##XYDATA= (X++(Y..Y))
   900.000000  -00078805  -00099543  -00053919  -00024885  -00161761  
   895.000000  -00120281  -00091255  -00037332  -00087106  -00082959  
   890.000000  -00041478   00000000  -00066365  -00074660  -00062216  
   885.000000  -00004147  -00132725  -00095391  -00058071  -00041478  
   880.000000  -00087102  -00149308  -00041475   00024885  -00070507  
   875.000000  -00136862  -00033179  -00128563  -00165890  -00103677  
   870.000000   00000000   00029027  -00082935  -00087078  -00099513  
   865.000000   00132687  -00053900  -00140958  -00132663  -00070478  
   860.000000  -00681464  -00963445  -01390384  -01541707  -01469488  
   855.000000  -01492184  -01450497  -01378872  -01307347  -01316597  
   850.000000  -01229562  -01151030  -01139643  -01086546  -01021592  
   845.000000  -01011105  -01008239  -00960115  -00871059  -00868985  
   840.000000  -00813551  -00721459  -00650473  -00620507  -00643567  
   835.000000  -00581216  -00531460  -00534458  -00484985  -00435578  
   830.000000  -00426921  -00390060  -00337236  -00324759  -00312282  
   825.000000  -00267945  -00267530  -00215395  -00243062  -00191108  
   820.000000  -00163076  -00158991  -00103277  -00111144  -00099176  
   815.000000  -00122928  -00107001  -00075251  -00091063  -00071220  
   810.000000  -00059297  -00114633  -00079031  -00094849  -00114586  
   805.000000  -00071105  -00102685  -00118451  -00118440  -00086855  
   800.000000  -00102642  -00122371  -00082891  -00110500  -00114441  
   795.000000  -00082874  -00090741  -00102591  -00090741  -00094673  
   790.000000  -00094682  -00078908  -00090737  -00098639  -00122285  
   785.000000  -00106500  -00071011  -00074964  -00106521  -00086793  
   780.000000  -00106533  -00086817  -00086808  -00055243  -00035522  
   775.000000  -00047364  -00047358  -00059198  -00094731  -00082893  
   770.000000  -00039472  -00078941  -00082887  -00086840  -00075004  
   765.000000  -00059215  -00063169  -00051326  -00071068  -00078970  
   760.000000  -00051335  -00063201  -00090862  -00090861  -00059257  
   755.000000  -00086918  -00071125  -00059280  -00059285  -00051385  
   750.000000  -00067199  -00075108  -00086973  -00079066  -00047439  
   745.000000  -00047448  -00059322  -00047460  -00059338  -00055390  
   740.000000  -00059344  -00063307  -00063317  -00079145  -00055402  
   735.000000  -00035624  -00047508  -00047511  -00011878  -00027719  
   730.000000  -00039602  -00007921  -00007922  -00035656  -00047550  
   725.000000  -00031701  -00051521  -00051529  -00047573  -00039648  
   720.000000  -00035687  -00023794  -00055527  -00059502  -00015869  
   715.000000  -00019840  -00035720  -00039696  -00019848  -00027789  
   710.000000  -00047647  -00035740  -00007943  -00023834  -00027811  
   705.000000  -00007946  -00015894  -00023846  -00023850  -00051683  
   700.000000  -00011928  -00003977  -00023868  -00015912  -00007957  
   695.000000   00015916   00000000  -00031844   00003981   00000000  
   690.000000  -00027901  -00039884  -00047867  -00039897  -00043896  
   685.000000  -00039911  -00023950  -00059889  -00051914  -00031955  
   680.000000  -00019975  -00035958  -00055949  -00019986  -00035981  
   675.000000  -00011996  -00015998   00007999  -00052004  -00028007  
   670.000000  -00032013  -00032019  -00036022  -00016014  -00020021  
   665.000000  -00032041  -00032043  -00036059  -00060107  -00008015  
   660.000000  -00028057  -00036083  -00016038  -00008020  -00044121  
   655.000000  -00072211  -00044135  -00032104  -00012040  -00024087  
   650.000000   00004015  -00020079  -00040162  -00008033   00024106  
   645.000000  -00004018  -00008039  -00056274  -00056286  -00016084  
   640.000000  -00020111  -00028159  -00040228  -00008047  -00032192  
   635.000000  -00044273  -00020129  -00024157  -00040268   00012083  
   630.000000  -00020142  -00004029  -00032239  -00028216  -00012091  
   625.000000  -00004031  -00024194  -00016133  -00032270  -00044373  
   620.000000  -00008069  -00020174  -00016146  -00008074   00020189  
   615.000000  -00040384  -00008078   00004039  -00016159   00040410  
   610.000000  -00012122  -00008083  -00068730  -00024260  -00032358  
   605.000000  -00048530  -00032367   00032368  -00012140  -00008095  
   600.000000  -00016196  -00004050  -00012151  -00020254  -00016206  
   595.000000  -00028366  -00024319   00008108  -00020275  -00016220  
   590.000000  -00004056   00000000  -00016233   00016238  -00020304  
   585.000000  -00032490  -00036567  -00016258  -00012196  -00024397  
   580.000000  -00012200   00008135  -00004069  -00020350   00000000  
   575.000000   00008145  -00028514  -00016298   00008151  -00012229  
   570.000000   00024468   00020394  -00016318   00000000   00036735  
   565.000000   00028581   00036751  -00004083  -00069382  -00089833  
   560.000000  -00106187  -00106219  -00085818  -00081761  -00053157  
   555.000000  -00089988  -00114558  -00098220  -00110532  -00114659  
   550.000000  -00102404  -00131093  -00127054  -00135285  -00143519  
   545.000000  -00131245  -00164114  -00143650  -00106751  -00139641  
   540.000000  -00139685  -00164386  -00172667  -00164504  -00156332  
   535.000000  -00172844  -00152301  -00135878  -00156523  -00119492  
   530.000000  -00115421  -00065977   00020623   00111388   00280629  
   525.000000   00503674   00801226   01309707   02066471   03208070  
   520.000000   04925216   07602880   11692990   18054027   27994815  
   515.000000   43286140   66295113   99792960   146956626   210891888  
   510.000000   293254932   393268893   506487238   625963284   742719094  
   505.000000   846505232   929549420   988332133   1023078923   1033920288  
   500.000000   1020169916   980157042   912641142   818993195   704238539  
   495.000000   578676615   455142827   343942257   250904018   177706199  
   490.000000   122911356   83613831   56407933   37935403   25486324  
   485.000000   17101896   11488379   07677342   05075431   03331817  
   480.000000   02192577   01481699   01014597   00698965   00442250  
   475.000000   00248584   00113789   00033724   00004216  -00050610  
   470.000000  -00046401   00004219   00016879   00059087   00126641  
   465.000000   00206904   00266096   00308408   00397220   00477665  
   460.000000   00494752   00524604   00558724   00537803   00537991  
   455.000000   00525509   00500366   00466737   00483988   00505485  
   450.000000   00450454   00412394   00416801   00425495   00395890  
   445.000000   00310962   00166252   00017062   00064003   00081103  
   440.000000   00046968   00111054   00085461   00106874   00141121  
   435.000000   00132633   00136957   00128451   00141347   00141415  
   430.000000   00150038   00124360   00133011   00145923   00133105  
   425.000000   00128865   00150389   00120348   00137581   00154838  
   420.000000   00163509   00159252   00159305   00185213   00137904  
   415.000000   00142262   00189767   00189806   00181239   00185621  
   410.000000   00185664   00155515   00125304   00190209   00168646  
   405.000000   00168725   00225034   00199120   00168866   00181925  
   400.000000   00182004   00199359   00190738   00199510   00229946  
   395.000000   00195278   00225752   00234473   00217153   00182459  
   390.000000   00243374   00195611   00191279   00213045   00226121  
   385.000000   00230528   00260996   00217478   00269652   00226179  
   380.000000   00243605  -00039185  -01823853  -01711014  -01390570  
   375.000000  -01156296  -00991274  -00739051  -00604521  -00574121  
   370.000000  -00374166  -00208848  -00104487   00087055   00152346  
   365.000000   00287261   00357013   00513863   00609754   00644532  
   360.000000   00723206   00692551   00714505   00675313   00675436  
   355.000000   00627465   00557780   00553500   00509804   00475120  
   350.000000   00383583   00383653   00361842   00313815   00292008  
   345.000000   00278940   00252737   00243991   00235292   00248343  
   340.000000   00213395   00209044   00243855   00243854   00252518  
   335.000000   00278614   00256882   00287281   00300255   00274089  
   330.000000   00260982   00300161   00334934   00326238   00339248  
   325.000000   00365270   00352298   00347875   00378201   00426037  
   320.000000   00386828   00300195  -00074259  -00187767  -00187729  
   315.000000  -00157135  -00148363  -00148355  -00157057  -00178826  
   310.000000  -00191884  -00187490  -00152592  -00165642  -00130764  
   305.000000  -00152549  -00152534  -00139428  -00139416  -00121969  
   300.000000  -00126319  -00126320  -00091485  -00100185  -00121941  
   295.000000  -00095800  -00104519  -00108873  -00126286  -00126281  
   290.000000  -00139338  -00191570  -00182872  -00139341  -00178503  
   285.000000  -00200258  -00182822  -00182836  -00195915  -00187207  
   280.000000  -00187201  -00182828  -00200239  -00195854  -00182782  
   275.000000  -00195848  -00178453  -00161046  -00191527  -00165421  
   270.000000  -00169791  -00130629  -00130647  -00187256  -00156785  
   265.000000  -00135008  -00139376  -00117625  -00091483  -00091475  
   260.000000  -00104535  -00108885  -00074036  -00065311  -00095767  
   255.000000  -00052221  -00043503  -00078286  -00082610  -00069540  
   250.000000  -00060830  
##END= 
