PE UV       SUBTECH     SPECTRUM    ASCII       PEDS        4.00        
   -1
Sample5.Sample.ASC
22/07/14
10:28:00.00
22/07/14
10:28:00.00
Michael Matus
NG11 #68 100 %
250.000000
1
Lambda 1050+
1060L2011032
PerkinElmer UV WinLab 7.1.0.68 / 2.02.11 Lambda 900 UV/VIS/NIR, May 23 2018 11:23:04

0
0
3350/servo 1800.8/servo 860.8/2
0
0
UV/VIS
1
1
1
CommonBeamDepol,RBeamAtt,SBeamAtt,uv/vis/nir detector, TDS WB InGaAs Detector
0
0
0
0
Program
Program
3350/servo 1800.8/servo 860.8/2
3350/0.2 1800.8/0.2 860.8/0.2
3350/0.2 1800.8/0.2 860.8/0.2
0
3350/1.00 1800.8/1.00
 
 
 
0
 
860.8
319.2
1800.8 860.8
Front
100
on
S:100 R:100
 
0
0
0
 
0
 
 
 
0
 
 
0
0
0
0
0
 
 
 
 
0
0


0
0
#HDR
-1
-1
#GR
nm
%T
1.0
0.0
900.000000
-1.000000
651
8
56.950279
-0.004872
#DATA
900.000000	41.851916
899.000000	41.929333
898.000000	42.002764
897.000000	42.076604
896.000000	42.146329
895.000000	42.222653
894.000000	42.302606
893.000000	42.377728
892.000000	42.457016
891.000000	42.529162
890.000000	42.606076
889.000000	42.683133
888.000000	42.764757
887.000000	42.840324
886.000000	42.921255
885.000000	42.999090
884.000000	43.076937
883.000000	43.157234
882.000000	43.236789
881.000000	43.312931
880.000000	43.395779
879.000000	43.478884
878.000000	43.561959
877.000000	43.641071
876.000000	43.721470
875.000000	43.800228
874.000000	43.882587
873.000000	43.964738
872.000000	44.048361
871.000000	44.132422
870.000000	44.215662
869.000000	44.298823
868.000000	44.386435
867.000000	44.469886
866.000000	44.555373
865.000000	44.639628
864.000000	44.728760
863.000000	44.819006
862.000000	44.904325
861.000000	44.991626
860.000000	45.048039
859.000000	45.188630
858.000000	45.248522
857.000000	45.341420
856.000000	45.442051
855.000000	45.528017
854.000000	45.602206
853.000000	45.693479
852.000000	45.781144
851.000000	45.866748
850.000000	45.947728
849.000000	46.012593
848.000000	46.131581
847.000000	46.194185
846.000000	46.293817
845.000000	46.407848
844.000000	46.474696
843.000000	46.570022
842.000000	46.651188
841.000000	46.759682
840.000000	46.835238
839.000000	46.932161
838.000000	47.016120
837.000000	47.129527
836.000000	47.224416
835.000000	47.309916
834.000000	47.389052
833.000000	47.485174
832.000000	47.585427
831.000000	47.674503
830.000000	47.777710
829.000000	47.862885
828.000000	47.957208
827.000000	48.034204
826.000000	48.134163
825.000000	48.239088
824.000000	48.321804
823.000000	48.434009
822.000000	48.515974
821.000000	48.610970
820.000000	48.713543
819.000000	48.829777
818.000000	48.912115
817.000000	48.998918
816.000000	49.106416
815.000000	49.193336
814.000000	49.284141
813.000000	49.384907
812.000000	49.495794
811.000000	49.581726
810.000000	49.633851
809.000000	49.748426
808.000000	49.846683
807.000000	49.938187
806.000000	50.027134
805.000000	50.124267
804.000000	50.216387
803.000000	50.316627
802.000000	50.420900
801.000000	50.506738
800.000000	50.603887
799.000000	50.711465
798.000000	50.810162
797.000000	50.904025
796.000000	50.999006
795.000000	51.091469
794.000000	51.179792
793.000000	51.279671
792.000000	51.386121
791.000000	51.496756
790.000000	51.591192
789.000000	51.685028
788.000000	51.788506
787.000000	51.876238
786.000000	51.977257
785.000000	52.071033
784.000000	52.158844
783.000000	52.260856
782.000000	52.371611
781.000000	52.457301
780.000000	52.546997
779.000000	52.639955
778.000000	52.746891
777.000000	52.834147
776.000000	52.928617
775.000000	53.026433
774.000000	53.121089
773.000000	53.217616
772.000000	53.311405
771.000000	53.403883
770.000000	53.497236
769.000000	53.591500
768.000000	53.680454
767.000000	53.765614
766.000000	53.862677
765.000000	53.951915
764.000000	54.032827
763.000000	54.132181
762.000000	54.217571
761.000000	54.296266
760.000000	54.388184
759.000000	54.477815
758.000000	54.564371
757.000000	54.646714
756.000000	54.738522
755.000000	54.813958
754.000000	54.886798
753.000000	54.973655
752.000000	55.064130
751.000000	55.141613
750.000000	55.218390
749.000000	55.296937
748.000000	55.368160
747.000000	55.434656
746.000000	55.502637
745.000000	55.583754
744.000000	55.661156
743.000000	55.721426
742.000000	55.797538
741.000000	55.871624
740.000000	55.933217
739.000000	56.006213
738.000000	56.071277
737.000000	56.128940
736.000000	56.183530
735.000000	56.241719
734.000000	56.298365
733.000000	56.352573
732.000000	56.413764
731.000000	56.465203
730.000000	56.508716
729.000000	56.551458
728.000000	56.602234
727.000000	56.652338
726.000000	56.682660
725.000000	56.724790
724.000000	56.767227
723.000000	56.794509
722.000000	56.819864
721.000000	56.848341
720.000000	56.870346
719.000000	56.896868
718.000000	56.914460
717.000000	56.918522
716.000000	56.932373
715.000000	56.937662
714.000000	56.944064
713.000000	56.950279
712.000000	56.929164
711.000000	56.919212
710.000000	56.916043
709.000000	56.897396
708.000000	56.876849
707.000000	56.848733
706.000000	56.814132
705.000000	56.780707
704.000000	56.741621
703.000000	56.692271
702.000000	56.639374
701.000000	56.592510
700.000000	56.522702
699.000000	56.450313
698.000000	56.395304
697.000000	56.329083
696.000000	56.252972
695.000000	56.179954
694.000000	56.088834
693.000000	56.007229
692.000000	55.919219
691.000000	55.826330
690.000000	55.780652
689.000000	55.711481
688.000000	55.612130
687.000000	55.510626
686.000000	55.403960
685.000000	55.302066
684.000000	55.208128
683.000000	55.108492
682.000000	54.991658
681.000000	54.879473
680.000000	54.788031
679.000000	54.683408
678.000000	54.562856
677.000000	54.450683
676.000000	54.339671
675.000000	54.231719
674.000000	54.116375
673.000000	54.007187
672.000000	53.908614
671.000000	53.799832
670.000000	53.702331
669.000000	53.604435
668.000000	53.528393
667.000000	53.459121
666.000000	53.372723
665.000000	53.316373
664.000000	53.250736
663.000000	53.200414
662.000000	53.151872
661.000000	53.099006
660.000000	53.053900
659.000000	53.024709
658.000000	53.010200
657.000000	52.985553
656.000000	52.961133
655.000000	52.955003
654.000000	52.938783
653.000000	52.934083
652.000000	52.936348
651.000000	52.930416
650.000000	52.941120
649.000000	52.944961
648.000000	52.959831
647.000000	52.993195
646.000000	53.006223
645.000000	53.026778
644.000000	53.048499
643.000000	53.071021
642.000000	53.096716
641.000000	53.118778
640.000000	53.147637
639.000000	53.167344
638.000000	53.210261
637.000000	53.230967
636.000000	53.269510
635.000000	53.299875
634.000000	53.317520
633.000000	53.347820
632.000000	53.375005
631.000000	53.412515
630.000000	53.426548
629.000000	53.449797
628.000000	53.473331
627.000000	53.502255
626.000000	53.513962
625.000000	53.529424
624.000000	53.551825
623.000000	53.556355
622.000000	53.575139
621.000000	53.565618
620.000000	53.576080
619.000000	53.582724
618.000000	53.583690
617.000000	53.585820
616.000000	53.582705
615.000000	53.576201
614.000000	53.576837
613.000000	53.559655
612.000000	53.559430
611.000000	53.556347
610.000000	53.536126
609.000000	53.533609
608.000000	53.530487
607.000000	53.541630
606.000000	53.536728
605.000000	53.524571
604.000000	53.529391
603.000000	53.529938
602.000000	53.529507
601.000000	53.537101
600.000000	53.553122
599.000000	53.560975
598.000000	53.567511
597.000000	53.585400
596.000000	53.614496
595.000000	53.639546
594.000000	53.672017
593.000000	53.720989
592.000000	53.755139
591.000000	53.802388
590.000000	53.847008
589.000000	53.902176
588.000000	53.967016
587.000000	54.037857
586.000000	54.113126
585.000000	54.187781
584.000000	54.277935
583.000000	54.361794
582.000000	54.454358
581.000000	54.533611
580.000000	54.642267
579.000000	54.742837
578.000000	54.838966
577.000000	54.932196
576.000000	55.018297
575.000000	55.134585
574.000000	55.236589
573.000000	55.332311
572.000000	55.425584
571.000000	55.516443
570.000000	55.610508
569.000000	55.693871
568.000000	55.775861
567.000000	55.868745
566.000000	55.955735
565.000000	56.021273
564.000000	56.104957
563.000000	56.167811
562.000000	56.173995
561.000000	56.260469
560.000000	56.316414
559.000000	56.368197
558.000000	56.420010
557.000000	56.469409
556.000000	56.514959
555.000000	56.553779
554.000000	56.589798
553.000000	56.615570
552.000000	56.645421
551.000000	56.674514
550.000000	56.694783
549.000000	56.714039
548.000000	56.736133
547.000000	56.757324
546.000000	56.762514
545.000000	56.770327
544.000000	56.766923
543.000000	56.771142
542.000000	56.768602
541.000000	56.768342
540.000000	56.765623
539.000000	56.755175
538.000000	56.734151
537.000000	56.715049
536.000000	56.692027
535.000000	56.662233
534.000000	56.634592
533.000000	56.604648
532.000000	56.570789
531.000000	56.533835
530.000000	56.496730
529.000000	56.456859
528.000000	56.419914
527.000000	56.380139
526.000000	56.341982
525.000000	56.300669
524.000000	56.266775
523.000000	56.237429
522.000000	56.195428
521.000000	56.161861
520.000000	56.126117
519.000000	56.091950
518.000000	56.058615
517.000000	56.023250
516.000000	55.982126
515.000000	55.938950
514.000000	55.894668
513.000000	55.850255
512.000000	55.804282
511.000000	55.754438
510.000000	55.704869
509.000000	55.650725
508.000000	55.599673
507.000000	55.551524
506.000000	55.506909
505.000000	55.466616
504.000000	55.426723
503.000000	55.393871
502.000000	55.370188
501.000000	55.352551
500.000000	55.340463
499.000000	55.327421
498.000000	55.319857
497.000000	55.318202
496.000000	55.318009
495.000000	55.321114
494.000000	55.323786
493.000000	55.337768
492.000000	55.351118
491.000000	55.360091
490.000000	55.369165
489.000000	55.386645
488.000000	55.413268
487.000000	55.434173
486.000000	55.462583
485.000000	55.495126
484.000000	55.531906
483.000000	55.579543
482.000000	55.631485
481.000000	55.679768
480.000000	55.721604
479.000000	55.743861
478.000000	55.752998
477.000000	55.776441
476.000000	55.806572
475.000000	55.836769
474.000000	55.872088
473.000000	55.895166
472.000000	55.905282
471.000000	55.921903
470.000000	55.934766
469.000000	55.937353
468.000000	55.932789
467.000000	55.916065
466.000000	55.881682
465.000000	55.833922
464.000000	55.774020
463.000000	55.701348
462.000000	55.610006
461.000000	55.495721
460.000000	55.362518
459.000000	55.218637
458.000000	55.050041
457.000000	54.867333
456.000000	54.660280
455.000000	54.437962
454.000000	54.209097
453.000000	53.954471
452.000000	53.683717
451.000000	53.413837
450.000000	53.131181
449.000000	52.848849
448.000000	52.570259
447.000000	52.303037
446.000000	52.040560
445.000000	51.825091
444.000000	51.644024
443.000000	51.504284
442.000000	51.394641
441.000000	51.321975
440.000000	51.287528
439.000000	51.318050
438.000000	51.385760
437.000000	51.480379
436.000000	51.583272
435.000000	51.685838
434.000000	51.786042
433.000000	51.872533
432.000000	51.932619
431.000000	51.962300
430.000000	51.962408
429.000000	51.921667
428.000000	51.854837
427.000000	51.777885
426.000000	51.675221
425.000000	51.557051
424.000000	51.431880
423.000000	51.308477
422.000000	51.178591
421.000000	51.067578
420.000000	50.965031
419.000000	50.865778
418.000000	50.798966
417.000000	50.765733
416.000000	50.736492
415.000000	50.746509
414.000000	50.793234
413.000000	50.880286
412.000000	50.996991
411.000000	51.151190
410.000000	51.339243
409.000000	51.538948
408.000000	51.738392
407.000000	51.965750
406.000000	52.186627
405.000000	52.387910
404.000000	52.549875
403.000000	52.695967
402.000000	52.775762
401.000000	52.785830
400.000000	52.726884
399.000000	52.606736
398.000000	52.419705
397.000000	52.147357
396.000000	51.779945
395.000000	51.357038
394.000000	50.848106
393.000000	50.254450
392.000000	49.514428
391.000000	48.684615
390.000000	47.715383
389.000000	46.631297
388.000000	45.377988
387.000000	43.976102
386.000000	42.432066
385.000000	40.754722
384.000000	38.983763
383.000000	37.194540
382.000000	35.446229
381.000000	33.811479
380.000000	32.423759
379.000000	31.336857
378.000000	30.816458
377.000000	30.837955
376.000000	31.415651
375.000000	32.405635
374.000000	33.610898
373.000000	34.864208
372.000000	35.938076
371.000000	36.676798
370.000000	37.058183
369.000000	37.096350
368.000000	36.845742
367.000000	36.364286
366.000000	35.686904
365.000000	34.866440
364.000000	33.977263
363.000000	32.968814
362.000000	31.894254
361.000000	30.781095
360.000000	29.591788
359.000000	28.387300
358.000000	27.128889
357.000000	25.848954
356.000000	24.529996
355.000000	23.189361
354.000000	21.856806
353.000000	20.514541
352.000000	19.168312
351.000000	17.833424
350.000000	16.492755
349.000000	15.163980
348.000000	13.885407
347.000000	12.599630
346.000000	11.354331
345.000000	10.171399
344.000000	9.046916
343.000000	7.977352
342.000000	6.974231
341.000000	6.036802
340.000000	5.171431
339.000000	4.378259
338.000000	3.665183
337.000000	3.019900
336.000000	2.455752
335.000000	1.967504
334.000000	1.550246
333.000000	1.202040
332.000000	0.915832
331.000000	0.682075
330.000000	0.498794
329.000000	0.357374
328.000000	0.249308
327.000000	0.170886
326.000000	0.114396
325.000000	0.075358
324.000000	0.048858
323.000000	0.032901
322.000000	0.022966
321.000000	0.017796
320.000000	0.012828
319.000000	0.009528
318.000000	-0.000208
317.000000	-0.004054
316.000000	-0.003222
315.000000	-0.003325
314.000000	-0.002286
313.000000	-0.002701
312.000000	-0.002493
311.000000	-0.003219
310.000000	-0.003011
309.000000	-0.003633
308.000000	-0.003321
307.000000	-0.002905
306.000000	-0.003631
305.000000	-0.003320
304.000000	-0.002905
303.000000	-0.002178
302.000000	-0.002386
301.000000	-0.003319
300.000000	-0.003837
299.000000	-0.003007
298.000000	-0.002592
297.000000	-0.002281
296.000000	-0.002385
295.000000	-0.002592
294.000000	-0.003318
293.000000	-0.003007
292.000000	-0.003215
291.000000	-0.003110
290.000000	-0.003110
289.000000	-0.003732
288.000000	-0.003628
287.000000	-0.003317
286.000000	-0.004146
285.000000	-0.004665
284.000000	-0.004250
283.000000	-0.003835
282.000000	-0.003835
281.000000	-0.003835
280.000000	-0.003317
279.000000	-0.003213
278.000000	-0.003938
277.000000	-0.004664
276.000000	-0.004872
275.000000	-0.004249
274.000000	-0.004042
273.000000	-0.003939
272.000000	-0.003628
271.000000	-0.004250
270.000000	-0.004769
269.000000	-0.004044
268.000000	-0.003318
267.000000	-0.003630
266.000000	-0.004045
265.000000	-0.003008
264.000000	-0.002697
263.000000	-0.003320
262.000000	-0.003009
261.000000	-0.002490
260.000000	-0.002282
259.000000	-0.002074
258.000000	-0.002178
257.000000	-0.001555
256.000000	-0.001969
255.000000	-0.002590
254.000000	-0.002279
253.000000	-0.001553
252.000000	-0.001449
251.000000	-0.001863
250.000000	-0.002070
