##TITLE= NG11 #68 100 %
##JCAMP-DX= 4.24
##DATA TYPE= UV/VIS SPECTRUM
##ORIGIN= Exported PE Spectrum Data File
##OWNER= Michael Matus
##DATE= 22/07/14
##TIME= 10:28:00.00
##DELTAX= -1.000000
##XUNITS= NANOMETERS
##YUNITS= TRANSMITTANCE
##XFACTOR= 1.00
##YFACTOR= 0.00000011920928955078
##FIRSTX= 900.00
##LASTX= 250.00
##NPOINTS= 651
##FIRSTY= 41.851916
##MAXY= 0.569503
##MINY= -0.000049
##XYDATA= (X++(Y..Y))
   900.000000   3510793   3517287   3523447   3529641   3535490  
   895.000000   3541892   3548599   3554901   3561552   3567604  
   890.000000   3574056   3580520   3587367   3593706   3600495  
   885.000000   3607025   3613555   3620291   3626964   3633352  
   880.000000   3640301   3647273   3654241   3660878   3667622  
   875.000000   3674229   3681138   3688029   3695044   3702095  
   870.000000   3709078   3716054   3723404   3730404   3737575  
   865.000000   3744643   3752120   3759690   3766847   3774171  
   860.000000   3778903   3790697   3795721   3803514   3811955  
   855.000000   3819166   3825390   3833046   3840400   3847581  
   850.000000   3854374   3859816   3869797   3875049   3883406  
   845.000000   3892972   3898580   3906576   3913385   3922486  
   840.000000   3928824   3936955   3943997   3953511   3961471  
   835.000000   3968643   3975281   3983345   3991754   3999227  
   830.000000   4007884   4015029   4022942   4029401   4037786  
   825.000000   4046587   4053526   4062939   4069814   4077783  
   820.000000   4086388   4096138   4103045   4110327   4119344  
   815.000000   4126636   4134253   4142706   4152008   4159216  
   810.000000   4163589   4173200   4181442   4189118   4196580  
   805.000000   4204728   4212455   4220864   4229611   4236812  
   800.000000   4244961   4253986   4262265   4270139   4278106  
   795.000000   4285863   4293272   4301650   4310580   4319860  
   790.000000   4327782   4335654   4344334   4351694   4360168  
   785.000000   4368034   4375400   4383958   4393249   4400437  
   780.000000   4407961   4415759   4424729   4432049   4439974  
   775.000000   4448179   4456119   4464217   4472084   4479842  
   770.000000   4487673   4495580   4503042   4510186   4518328  
   765.000000   4525814   4532602   4540936   4548099   4554700  
   760.000000   4562411   4569930   4577191   4584098   4591800  
   755.000000   4598128   4604238   4611524   4619114   4625613  
   750.000000   4632054   4638643   4644617   4650195   4655898  
   745.000000   4662703   4669196   4674252   4680636   4686851  
   740.000000   4692018   4698141   4703599   4708436   4713016  
   735.000000   4717897   4722649   4727196   4732329   4736644  
   730.000000   4740294   4743880   4748139   4752342   4754886  
   725.000000   4758420   4761980   4764268   4766395   4768784  
   720.000000   4770630   4772855   4774330   4774671   4775833  
   715.000000   4776277   4776814   4777335   4775564   4774729  
   710.000000   4774463   4772899   4771175   4768817   4765914  
   705.000000   4763110   4759832   4755692   4751255   4747323  
   700.000000   4741467   4735395   4730781   4725225   4718841  
   695.000000   4712716   4705072   4698226   4690844   4683051  
   690.000000   4679220   4673417   4665083   4656568   4647621  
   685.000000   4639073   4631193   4622835   4613034   4603623  
   680.000000   4595953   4587176   4577064   4567654   4558341  
   675.000000   4549286   4539610   4530451   4522182   4513056  
   670.000000   4504878   4496665   4490287   4484476   4477228  
   665.000000   4472501   4466995   4462774   4458702   4454267  
   660.000000   4450483   4448035   4446817   4444750   4442701  
   655.000000   4442187   4440826   4440432   4440622   4440125  
   650.000000   4441023   4441345   4442592   4445391   4446484  
   645.000000   4448208   4450030   4451919   4454075   4455926  
   640.000000   4458346   4460000   4463600   4465337   4468570  
   635.000000   4471117   4472597   4475139   4477419   4480566  
   630.000000   4481743   4483693   4485668   4488094   4489076  
   625.000000   4490373   4492252   4492632   4494208   4493409  
   620.000000   4494287   4494844   4494925   4495104   4494843  
   615.000000   4494297   4494350   4492909   4492890   4492632  
   610.000000   4490935   4490724   4490462   4491397   4490986  
   605.000000   4489966   4490370   4490416   4490380   4491017  
   600.000000   4492361   4493020   4493568   4495069   4497509  
   595.000000   4499611   4502335   4506443   4509307   4513271  
   590.000000   4517014   4521642   4527081   4533023   4539338  
   585.000000   4545600   4553163   4560197   4567962   4574610  
   580.000000   4583725   4592161   4600225   4608046   4615269  
   575.000000   4625024   4633580   4641610   4649435   4657056  
   570.000000   4664947   4671940   4678818   4686609   4693907  
   565.000000   4699405   4706424   4711697   4712216   4719470  
   560.000000   4724163   4728507   4732853   4736997   4740818  
   555.000000   4744074   4747096   4749258   4751762   4754202  
   550.000000   4755903   4757518   4759371   4761149   4761584  
   545.000000   4762240   4761954   4762308   4762095   4762073  
   540.000000   4761845   4760969   4759205   4757603   4755671  
   535.000000   4753172   4750853   4748342   4745501   4742401  
   530.000000   4739289   4735944   4732845   4729508   4726307  
   525.000000   4722842   4719999   4717537   4714014   4711198  
   520.000000   4708199   4705333   4702537   4699570   4696121  
   515.000000   4692499   4688784   4685058   4681202   4677021  
   510.000000   4672863   4668321   4664038   4659999   4656256  
   505.000000   4652876   4649530   4646774   4644787   4643308  
   500.000000   4642294   4641200   4640565   4640427   4640410  
   495.000000   4640671   4640895   4642068   4643188   4643940  
   490.000000   4644702   4646168   4648401   4650155   4652538  
   485.000000   4655268   4658353   4662349   4666707   4670757  
   480.000000   4674266   4676133   4676900   4678867   4681394  
   475.000000   4683927   4686890   4688826   4689674   4691069  
   470.000000   4692148   4692365   4691982   4690579   4687695  
   465.000000   4683688   4678663   4672567   4664905   4655318  
   460.000000   4644144   4632075   4617932   4602605   4585236  
   455.000000   4566587   4547388   4526029   4503316   4480677  
   450.000000   4456966   4433282   4409912   4387496   4365478  
   445.000000   4347403   4332214   4320492   4311294   4305199  
   440.000000   4302309   4304870   4310550   4318487   4327118  
   435.000000   4335722   4344128   4351383   4356423   4358913  
   430.000000   4358922   4355505   4349898   4343443   4334831  
   425.000000   4324918   4314418   4304067   4293171   4283858  
   420.000000   4275256   4266930   4261326   4258538   4256085  
   415.000000   4256925   4260845   4268147   4277937   4290872  
   410.000000   4306647   4323400   4340130   4359203   4377731  
   405.000000   4394616   4408202   4420458   4427151   4427996  
   400.000000   4423051   4412972   4397283   4374437   4343616  
   395.000000   4308140   4265448   4215648   4153571   4083961  
   390.000000   4002656   3911716   3806581   3688982   3559459  
   385.000000   3418753   3270195   3120104   2973445   2836312  
   380.000000   2719902   2628726   2585071   2586875   2635335  
   375.000000   2718381   2819486   2924621   3014704   3076672  
   370.000000   3108665   3111867   3090844   3050457   2993634  
   365.000000   2924808   2850219   2765624   2675483   2582105  
   360.000000   2482339   2381299   2275736   2168367   2057725  
   355.000000   1945264   1833481   1720884   1607954   1495976  
   350.000000   1383512   1272046   1164792   1056933   952470  
   345.000000   853238   758910   669188   585040   506403  
   340.000000   433811   367274   307457   253327   206003  
   335.000000   165046   130044   100834   76825   57216  
   330.000000   41841   29978   20913   14334   09596  
   325.000000   06321   04098   02759   01926   01492  
   320.000000   01076   00799  -00017  -00340  -00270  
   315.000000  -00278  -00191  -00226  -00209  -00270  
   310.000000  -00252  -00304  -00278  -00243  -00304  
   305.000000  -00278  -00243  -00182  -00200  -00278  
   300.000000  -00321  -00252  -00217  -00191  -00200  
   295.000000  -00217  -00278  -00252  -00269  -00260  
   290.000000  -00260  -00313  -00304  -00278  -00347  
   285.000000  -00391  -00356  -00321  -00321  -00321  
   280.000000  -00278  -00269  -00330  -00391  -00408  
   275.000000  -00356  -00339  -00330  -00304  -00356  
   270.000000  -00400  -00339  -00278  -00304  -00339  
   265.000000  -00252  -00226  -00278  -00252  -00208  
   260.000000  -00191  -00174  -00182  -00130  -00165  
   255.000000  -00217  -00191  -00130  -00121  -00156  
   250.000000  -00173  
##END= 
