PE UV       SUBTECH     SPECTRUM    ASCII       PEDS        4.00        
   -1
Sample1.Sample.ASC
22/07/14
05:48:48.00
22/07/14
05:48:48.00
Michael Matus
IF 499nm 0.1 %
250.000000
1
Lambda 1050+
1060L2011032
PerkinElmer UV WinLab 7.1.0.68 / 2.02.11 Lambda 900 UV/VIS/NIR, May 23 2018 11:23:04

0
0
3350/servo 1800.8/servo 860.8/2
0
0
UV/VIS
1
1
1
CommonBeamDepol,RBeamAtt,SBeamAtt,uv/vis/nir detector, TDS WB InGaAs Detector
0
0
0
0
Program
Program
3350/servo 1800.8/servo 860.8/2
3350/0.2 1800.8/0.2 860.8/0.2
3350/0.2 1800.8/0.2 860.8/0.2
0
3350/1.00 1800.8/1.00
 
 
 
0
 
860.8
319.2
1800.8 860.8
Front
100
on
S:100 R:0.1
 
0
0
0
 
0
 
 
 
0
 
 
0
0
0
0
0
 
 
 
 
0
0


0
0
#HDR
-1
-1
#GR
nm
%T
1.0
0.0
900.000000
-1.000000
651
8
27.715608
-0.003354
#DATA
900.000000	0.000117
899.000000	-0.000143
898.000000	-0.001349
897.000000	0.000487
896.000000	-0.000426
895.000000	-0.001477
894.000000	-0.001482
893.000000	-0.000395
892.000000	0.000116
891.000000	-0.000348
890.000000	-0.001195
889.000000	-0.001164
888.000000	-0.000281
887.000000	-0.001804
886.000000	0.000309
885.000000	0.000184
884.000000	0.000099
883.000000	-0.002299
882.000000	-0.000932
881.000000	0.000380
880.000000	0.000614
879.000000	0.001112
878.000000	0.002060
877.000000	0.000873
876.000000	-0.000075
875.000000	-0.000448
874.000000	0.000725
873.000000	0.000993
872.000000	-0.001729
871.000000	0.001053
870.000000	0.000437
869.000000	-0.001407
868.000000	-0.003282
867.000000	-0.000417
866.000000	-0.001393
865.000000	-0.001567
864.000000	-0.000649
863.000000	-0.001867
862.000000	0.000292
861.000000	-0.001280
860.000000	-0.003354
859.000000	0.000075
858.000000	-0.000054
857.000000	-0.000009
856.000000	0.000027
855.000000	-0.000075
854.000000	-0.000041
853.000000	-0.000019
852.000000	-0.000047
851.000000	-0.000064
850.000000	-0.000063
849.000000	-0.000056
848.000000	-0.000032
847.000000	-0.000009
846.000000	-0.000019
845.000000	-0.000038
844.000000	-0.000052
843.000000	-0.000026
842.000000	-0.000027
841.000000	-0.000033
840.000000	-0.000014
839.000000	-0.000031
838.000000	-0.000034
837.000000	-0.000046
836.000000	-0.000040
835.000000	-0.000014
834.000000	-0.000033
833.000000	-0.000030
832.000000	-0.000017
831.000000	-0.000016
830.000000	-0.000034
829.000000	-0.000019
828.000000	-0.000013
827.000000	-0.000020
826.000000	-0.000013
825.000000	-0.000027
824.000000	-0.000003
823.000000	-0.000013
822.000000	-0.000002
821.000000	-0.000012
820.000000	-0.000013
819.000000	-0.000006
818.000000	-0.000012
817.000000	0.000007
816.000000	-0.000013
815.000000	-0.000003
814.000000	-0.000012
813.000000	0.000004
812.000000	0.000001
811.000000	-0.000007
810.000000	-0.000004
809.000000	-0.000007
808.000000	-0.000015
807.000000	-0.000012
806.000000	-0.000019
805.000000	-0.000019
804.000000	-0.000016
803.000000	-0.000005
802.000000	-0.000007
801.000000	0.000003
800.000000	-0.000015
799.000000	-0.000017
798.000000	0.000004
797.000000	-0.000002
796.000000	-0.000002
795.000000	-0.000011
794.000000	-0.000015
793.000000	-0.000020
792.000000	-0.000015
791.000000	-0.000002
790.000000	-0.000006
789.000000	-0.000008
788.000000	-0.000018
787.000000	-0.000015
786.000000	0.000004
785.000000	-0.000007
784.000000	-0.000010
783.000000	-0.000007
782.000000	0.000001
781.000000	-0.000013
780.000000	-0.000014
779.000000	-0.000001
778.000000	-0.000006
777.000000	-0.000003
776.000000	-0.000002
775.000000	-0.000010
774.000000	-0.000005
773.000000	-0.000010
772.000000	-0.000016
771.000000	-0.000014
770.000000	-0.000005
769.000000	0.000000
768.000000	-0.000005
767.000000	-0.000010
766.000000	-0.000007
765.000000	-0.000005
764.000000	-0.000006
763.000000	-0.000010
762.000000	-0.000002
761.000000	0.000002
760.000000	-0.000008
759.000000	-0.000008
758.000000	-0.000007
757.000000	-0.000011
756.000000	-0.000013
755.000000	-0.000011
754.000000	-0.000007
753.000000	-0.000003
752.000000	-0.000008
751.000000	-0.000011
750.000000	-0.000010
749.000000	-0.000010
748.000000	-0.000010
747.000000	-0.000008
746.000000	-0.000004
745.000000	-0.000007
744.000000	-0.000012
743.000000	-0.000011
742.000000	-0.000007
741.000000	-0.000008
740.000000	-0.000005
739.000000	-0.000001
738.000000	-0.000001
737.000000	-0.000006
736.000000	-0.000014
735.000000	-0.000011
734.000000	-0.000005
733.000000	-0.000005
732.000000	-0.000005
731.000000	-0.000004
730.000000	-0.000003
729.000000	-0.000005
728.000000	-0.000006
727.000000	-0.000005
726.000000	-0.000005
725.000000	-0.000007
724.000000	-0.000011
723.000000	-0.000006
722.000000	-0.000003
721.000000	-0.000004
720.000000	-0.000000
719.000000	0.000001
718.000000	-0.000003
717.000000	-0.000009
716.000000	-0.000009
715.000000	-0.000002
714.000000	-0.000002
713.000000	-0.000007
712.000000	-0.000003
711.000000	-0.000001
710.000000	0.000001
709.000000	0.000000
708.000000	-0.000003
707.000000	-0.000006
706.000000	-0.000004
705.000000	-0.000004
704.000000	-0.000001
703.000000	-0.000004
702.000000	-0.000002
701.000000	-0.000002
700.000000	-0.000001
699.000000	0.000003
698.000000	0.000004
697.000000	0.000002
696.000000	-0.000001
695.000000	-0.000004
694.000000	-0.000003
693.000000	-0.000006
692.000000	-0.000004
691.000000	-0.000004
690.000000	-0.000003
689.000000	-0.000001
688.000000	-0.000003
687.000000	-0.000004
686.000000	-0.000008
685.000000	-0.000006
684.000000	-0.000000
683.000000	-0.000000
682.000000	-0.000001
681.000000	-0.000004
680.000000	-0.000005
679.000000	-0.000001
678.000000	-0.000002
677.000000	-0.000004
676.000000	-0.000006
675.000000	-0.000009
674.000000	-0.000007
673.000000	-0.000001
672.000000	-0.000002
671.000000	-0.000003
670.000000	-0.000005
669.000000	-0.000004
668.000000	-0.000004
667.000000	-0.000003
666.000000	-0.000006
665.000000	-0.000006
664.000000	-0.000005
663.000000	-0.000003
662.000000	-0.000002
661.000000	-0.000005
660.000000	-0.000003
659.000000	-0.000002
658.000000	-0.000001
657.000000	-0.000005
656.000000	-0.000004
655.000000	-0.000003
654.000000	-0.000005
653.000000	0.000000
652.000000	-0.000002
651.000000	-0.000005
650.000000	0.000000
649.000000	-0.000000
648.000000	-0.000008
647.000000	-0.000006
646.000000	-0.000001
645.000000	0.000000
644.000000	0.000001
643.000000	-0.000005
642.000000	-0.000001
641.000000	-0.000002
640.000000	-0.000009
639.000000	-0.000003
638.000000	-0.000001
637.000000	-0.000002
636.000000	0.000001
635.000000	-0.000005
634.000000	-0.000005
633.000000	-0.000004
632.000000	-0.000001
631.000000	-0.000001
630.000000	0.000001
629.000000	-0.000003
628.000000	-0.000005
627.000000	-0.000004
626.000000	-0.000007
625.000000	-0.000006
624.000000	-0.000005
623.000000	-0.000003
622.000000	-0.000002
621.000000	-0.000003
620.000000	-0.000003
619.000000	-0.000006
618.000000	-0.000002
617.000000	-0.000007
616.000000	-0.000003
615.000000	-0.000005
614.000000	-0.000006
613.000000	-0.000002
612.000000	0.000003
611.000000	-0.000007
610.000000	-0.000004
609.000000	-0.000002
608.000000	0.000002
607.000000	0.000002
606.000000	-0.000001
605.000000	-0.000001
604.000000	-0.000001
603.000000	-0.000006
602.000000	-0.000001
601.000000	-0.000001
600.000000	-0.000001
599.000000	-0.000003
598.000000	-0.000003
597.000000	-0.000008
596.000000	-0.000002
595.000000	0.000000
594.000000	-0.000000
593.000000	-0.000007
592.000000	0.000000
591.000000	-0.000003
590.000000	0.000001
589.000000	-0.000002
588.000000	-0.000003
587.000000	-0.000001
586.000000	-0.000001
585.000000	-0.000004
584.000000	-0.000004
583.000000	-0.000004
582.000000	-0.000001
581.000000	0.000001
580.000000	-0.000001
579.000000	-0.000005
578.000000	-0.000007
577.000000	-0.000001
576.000000	0.000000
575.000000	-0.000002
574.000000	0.000000
573.000000	0.000003
572.000000	0.000003
571.000000	0.000004
570.000000	0.000003
569.000000	-0.000003
568.000000	-0.000000
567.000000	0.000002
566.000000	0.000005
565.000000	0.000007
564.000000	0.000007
563.000000	0.000009
562.000000	0.000007
561.000000	0.000005
560.000000	0.000007
559.000000	0.000007
558.000000	0.000006
557.000000	0.000011
556.000000	0.000015
555.000000	0.000020
554.000000	0.000017
553.000000	0.000021
552.000000	0.000030
551.000000	0.000034
550.000000	0.000042
549.000000	0.000050
548.000000	0.000063
547.000000	0.000080
546.000000	0.000098
545.000000	0.000115
544.000000	0.000141
543.000000	0.000173
542.000000	0.000212
541.000000	0.000267
540.000000	0.000331
539.000000	0.000406
538.000000	0.000513
537.000000	0.000640
536.000000	0.000806
535.000000	0.001034
534.000000	0.001321
533.000000	0.001697
532.000000	0.002222
531.000000	0.002933
530.000000	0.003837
529.000000	0.005100
528.000000	0.006870
527.000000	0.009330
526.000000	0.012867
525.000000	0.017838
524.000000	0.025269
523.000000	0.036129
522.000000	0.052041
521.000000	0.076535
520.000000	0.114175
519.000000	0.173519
518.000000	0.265575
517.000000	0.411481
516.000000	0.647272
515.000000	1.020202
514.000000	1.588465
513.000000	2.466125
512.000000	3.775808
511.000000	5.539827
510.000000	7.869395
509.000000	10.859903
508.000000	14.277231
507.000000	17.726453
506.000000	21.075079
505.000000	23.963944
504.000000	25.977869
503.000000	27.164900
502.000000	27.715608
501.000000	27.609372
500.000000	26.740041
499.000000	25.043358
498.000000	22.728734
497.000000	19.980608
496.000000	16.840376
495.000000	13.633413
494.000000	10.634561
493.000000	7.958250
492.000000	5.817875
491.000000	4.130530
490.000000	2.856159
489.000000	1.936523
488.000000	1.297843
487.000000	0.866359
486.000000	0.576363
485.000000	0.383961
484.000000	0.256595
483.000000	0.168726
482.000000	0.111644
481.000000	0.075973
480.000000	0.053129
479.000000	0.038678
478.000000	0.029090
477.000000	0.021673
476.000000	0.016031
475.000000	0.011989
474.000000	0.009184
473.000000	0.007097
472.000000	0.005467
471.000000	0.004284
470.000000	0.003402
469.000000	0.002720
468.000000	0.002215
467.000000	0.001808
466.000000	0.001480
465.000000	0.001221
464.000000	0.001016
463.000000	0.000850
462.000000	0.000725
461.000000	0.000623
460.000000	0.000533
459.000000	0.000452
458.000000	0.000390
457.000000	0.000341
456.000000	0.000293
455.000000	0.000253
454.000000	0.000221
453.000000	0.000192
452.000000	0.000170
451.000000	0.000149
450.000000	0.000134
449.000000	0.000121
448.000000	0.000102
447.000000	0.000095
446.000000	0.000084
445.000000	0.000071
444.000000	0.000057
443.000000	0.000043
442.000000	0.000041
441.000000	0.000039
440.000000	0.000040
439.000000	0.000032
438.000000	0.000034
437.000000	0.000032
436.000000	0.000025
435.000000	0.000029
434.000000	0.000026
433.000000	0.000018
432.000000	0.000019
431.000000	0.000026
430.000000	0.000027
429.000000	0.000018
428.000000	0.000019
427.000000	0.000015
426.000000	0.000016
425.000000	0.000012
424.000000	0.000019
423.000000	0.000025
422.000000	0.000020
421.000000	0.000017
420.000000	0.000016
419.000000	0.000025
418.000000	0.000021
417.000000	0.000017
416.000000	0.000016
415.000000	0.000020
414.000000	0.000022
413.000000	0.000021
412.000000	0.000018
411.000000	0.000011
410.000000	0.000023
409.000000	0.000018
408.000000	0.000021
407.000000	0.000019
406.000000	0.000012
405.000000	0.000016
404.000000	0.000026
403.000000	0.000024
402.000000	0.000022
401.000000	0.000023
400.000000	0.000023
399.000000	0.000025
398.000000	0.000027
397.000000	0.000043
396.000000	0.000025
395.000000	0.000026
394.000000	0.000021
393.000000	0.000036
392.000000	0.000036
391.000000	0.000040
390.000000	0.000059
389.000000	0.000066
388.000000	0.000055
387.000000	0.000065
386.000000	0.000084
385.000000	0.000099
384.000000	0.000119
383.000000	0.000135
382.000000	0.000180
381.000000	0.000196
380.000000	0.000268
379.000000	0.000335
378.000000	0.000166
377.000000	0.000280
376.000000	0.000410
375.000000	0.000566
374.000000	0.000874
373.000000	0.001226
372.000000	0.001725
371.000000	0.002321
370.000000	0.003216
369.000000	0.004191
368.000000	0.005599
367.000000	0.007004
366.000000	0.008488
365.000000	0.010272
364.000000	0.011629
363.000000	0.013215
362.000000	0.014521
361.000000	0.015176
360.000000	0.015500
359.000000	0.015609
358.000000	0.015512
357.000000	0.014671
356.000000	0.013743
355.000000	0.012815
354.000000	0.011311
353.000000	0.010042
352.000000	0.008678
351.000000	0.007362
350.000000	0.006446
349.000000	0.005285
348.000000	0.004439
347.000000	0.003751
346.000000	0.003007
345.000000	0.002420
344.000000	0.001950
343.000000	0.001548
342.000000	0.001287
341.000000	0.000914
340.000000	0.000835
339.000000	0.000626
338.000000	0.000474
337.000000	0.000353
336.000000	0.000294
335.000000	0.000243
334.000000	0.000184
333.000000	0.000162
332.000000	0.000129
331.000000	0.000075
330.000000	0.000041
329.000000	0.000068
328.000000	0.000065
327.000000	0.000043
326.000000	0.000008
325.000000	0.000024
324.000000	0.000015
323.000000	0.000000
322.000000	-0.000009
321.000000	0.000044
320.000000	0.000016
319.000000	0.000025
318.000000	-0.000012
317.000000	-0.000015
316.000000	-0.000002
315.000000	-0.000019
314.000000	-0.000013
313.000000	-0.000011
312.000000	-0.000002
311.000000	-0.000008
310.000000	-0.000015
309.000000	-0.000011
308.000000	-0.000012
307.000000	-0.000019
306.000000	-0.000006
305.000000	-0.000009
304.000000	-0.000006
303.000000	-0.000010
302.000000	-0.000014
301.000000	-0.000010
300.000000	-0.000002
299.000000	-0.000012
298.000000	-0.000012
297.000000	-0.000004
296.000000	-0.000009
295.000000	-0.000013
294.000000	-0.000007
293.000000	-0.000003
292.000000	-0.000006
291.000000	-0.000007
290.000000	-0.000013
289.000000	-0.000012
288.000000	-0.000016
287.000000	-0.000015
286.000000	-0.000011
285.000000	-0.000010
284.000000	-0.000014
283.000000	-0.000013
282.000000	-0.000013
281.000000	-0.000018
280.000000	-0.000018
279.000000	-0.000013
278.000000	-0.000014
277.000000	-0.000013
276.000000	-0.000016
275.000000	-0.000019
274.000000	-0.000015
273.000000	-0.000010
272.000000	-0.000009
271.000000	-0.000007
270.000000	-0.000007
269.000000	-0.000009
268.000000	-0.000009
267.000000	-0.000013
266.000000	-0.000014
265.000000	-0.000011
264.000000	-0.000009
263.000000	-0.000011
262.000000	-0.000012
261.000000	-0.000008
260.000000	-0.000006
259.000000	-0.000006
258.000000	-0.000009
257.000000	-0.000007
256.000000	-0.000002
255.000000	-0.000002
254.000000	-0.000007
253.000000	-0.000007
252.000000	-0.000005
251.000000	-0.000004
250.000000	-0.000003
