##TITLE= IF 499nm 0.1 %
##JCAMP-DX= 4.24
##DATA TYPE= UV/VIS SPECTRUM
##ORIGIN= Exported PE Spectrum Data File
##OWNER= Michael Matus
##DATE= 22/07/14
##TIME= 05:48:48.00
##DELTAX= -1.000000
##XUNITS= NANOMETERS
##YUNITS= TRANSMITTANCE
##XFACTOR= 1.00
##YFACTOR= 0.00000000023841857910
##FIRSTX= 900.00
##LASTX= 250.00
##NPOINTS= 651
##FIRSTY= 0.000117
##MAXY= 0.277156
##MINY= -0.000034
##XYDATA= (X++(Y..Y))
   900.000000   00004922  -00006015  -00056565   00020414  -00017859  
   895.000000  -00061943  -00062145  -00016554   00004870  -00014575  
   890.000000  -00050118  -00048809  -00011798  -00075655   00012977  
   885.000000   00007703   00004132  -00096426  -00039111   00015938  
   880.000000   00025755   00046644   00086395   00036608  -00003134  
   875.000000  -00018770   00030419   00041659  -00072526   00044159  
   870.000000   00018325  -00058993  -00137673  -00017470  -00058446  
   865.000000  -00065726  -00027230  -00078327   00012234  -00053670  
   860.000000  -00140663   00003155  -00002268  -00000376   00001136  
   855.000000  -00003149  -00001733  -00000786  -00001984  -00002675  
   850.000000  -00002640  -00002367  -00001326  -00000359  -00000783  
   845.000000  -00001597  -00002172  -00001092  -00001139  -00001369  
   840.000000  -00000580  -00001296  -00001433  -00001930  -00001678  
   835.000000  -00000602  -00001377  -00001260  -00000695  -00000650  
   830.000000  -00001432  -00000797  -00000550  -00000843  -00000538  
   825.000000  -00001139  -00000118  -00000550  -00000083  -00000492  
   820.000000  -00000546  -00000265  -00000485   00000310  -00000532  
   815.000000  -00000124  -00000485   00000175   00000033  -00000313  
   810.000000  -00000164  -00000282  -00000628  -00000515  -00000799  
   805.000000  -00000808  -00000680  -00000212  -00000301   00000133  
   800.000000  -00000610  -00000700   00000149  -00000093  -00000097  
   795.000000  -00000477  -00000646  -00000819  -00000629  -00000099  
   790.000000  -00000243  -00000336  -00000755  -00000617   00000170  
   785.000000  -00000291  -00000404  -00000299   00000043  -00000555  
   780.000000  -00000587  -00000059  -00000258  -00000111  -00000094  
   775.000000  -00000402  -00000195  -00000435  -00000669  -00000596  
   770.000000  -00000225   00000010  -00000222  -00000405  -00000306  
   765.000000  -00000227  -00000237  -00000403  -00000073   00000080  
   760.000000  -00000323  -00000347  -00000283  -00000470  -00000544  
   755.000000  -00000482  -00000289  -00000123  -00000315  -00000450  
   750.000000  -00000431  -00000422  -00000432  -00000339  -00000182  
   745.000000  -00000306  -00000498  -00000472  -00000298  -00000332  
   740.000000  -00000208  -00000030  -00000037  -00000243  -00000583  
   735.000000  -00000474  -00000215  -00000225  -00000220  -00000157  
   730.000000  -00000110  -00000214  -00000252  -00000201  -00000226  
   725.000000  -00000276  -00000458  -00000233  -00000137  -00000184  
   720.000000  -00000010   00000023  -00000109  -00000365  -00000377  
   715.000000  -00000086  -00000096  -00000273  -00000107  -00000024  
   710.000000   00000044   00000010  -00000128  -00000231  -00000163  
   705.000000  -00000160  -00000048  -00000152  -00000069  -00000104  
   700.000000  -00000055   00000110   00000186   00000077  -00000035  
   695.000000  -00000164  -00000122  -00000263  -00000164  -00000168  
   690.000000  -00000127  -00000048  -00000145  -00000170  -00000317  
   685.000000  -00000251  -00000020   00000000  -00000024  -00000188  
   680.000000  -00000196  -00000060  -00000072  -00000156  -00000237  
   675.000000  -00000366  -00000301  -00000056  -00000081  -00000116  
   670.000000  -00000227  -00000182  -00000168  -00000129  -00000258  
   665.000000  -00000272  -00000196  -00000111  -00000079  -00000208  
   660.000000  -00000140  -00000071  -00000052  -00000227  -00000158  
   655.000000  -00000104  -00000204   00000010  -00000070  -00000191  
   650.000000   00000010  -00000017  -00000327  -00000251  -00000048  
   645.000000   00000007   00000042  -00000227  -00000062  -00000104  
   640.000000  -00000390  -00000111  -00000041  -00000074   00000032  
   635.000000  -00000212  -00000205  -00000166  -00000039  -00000060  
   630.000000   00000042  -00000141  -00000217  -00000155  -00000311  
   625.000000  -00000254  -00000203  -00000125  -00000070  -00000118  
   620.000000  -00000128  -00000236  -00000086  -00000276  -00000134  
   615.000000  -00000218  -00000258  -00000072   00000125  -00000305  
   610.000000  -00000180  -00000091   00000086   00000075  -00000035  
   605.000000  -00000028  -00000032  -00000245  -00000032  -00000039  
   600.000000  -00000024  -00000142  -00000139  -00000324  -00000086  
   595.000000   00000003  -00000003  -00000308   00000010  -00000115  
   590.000000   00000057  -00000099  -00000108  -00000032  -00000050  
   585.000000  -00000147  -00000153  -00000155  -00000028   00000025  
   580.000000  -00000060  -00000216  -00000279  -00000025   00000000  
   575.000000  -00000086   00000000   00000119   00000142   00000178  
   570.000000   00000115  -00000134  -00000007   00000084   00000195  
   565.000000   00000306   00000304   00000365   00000298   00000207  
   560.000000   00000302   00000275   00000232   00000458   00000624  
   555.000000   00000827   00000696   00000888   00001252   00001441  
   550.000000   00001774   00002105   00002642   00003350   00004127  
   545.000000   00004811   00005932   00007258   00008910   00011194  
   540.000000   00013891   00017010   00021523   00026831   00033787  
   535.000000   00043379   00055408   00071173   00093190   00123027  
   530.000000   00160945   00213894   00288147   00391324   00539670  
   525.000000   00748183   01059868   01515358   02182744   03210129  
   520.000000   04788848   07277929   11139022   17258773   27148540  
   515.000000   42790355   66625043   103436798   158368865   232357183  
   510.000000   330066365   455497342   598830457   743501310   883952893  
   505.000000   1005120668   1089590798   1139378491   1162476869   1158021012  
   500.000000   1121558613   1050394581   953312201   838047459   706336548  
   495.000000   571826775   446045825   333793191   244019361   173246989  
   490.000000   119796007   81223661   54435470   36337730   24174400  
   485.000000   16104504   10762384   07076886   04682704   03186527  
   480.000000   02228404   01622255   01220112   00909038   00672380  
   475.000000   00502854   00385194   00297683   00229299   00179704  
   470.000000   00142679   00114071   00092912   00075839   00062085  
   465.000000   00051217   00042597   00035669   00030408   00026113  
   460.000000   00022366   00018957   00016349   00014316   00012290  
   455.000000   00010624   00009279   00008032   00007119   00006253  
   450.000000   00005606   00005095   00004297   00003989   00003524  
   445.000000   00002959   00002407   00001800   00001709   00001647  
   440.000000   00001660   00001343   00001413   00001345   00001063  
   435.000000   00001205   00001088   00000735   00000790   00001102  
   430.000000   00001123   00000750   00000794   00000617   00000650  
   425.000000   00000508   00000801   00001063   00000851   00000726  
   420.000000   00000669   00001038   00000900   00000731   00000653  
   415.000000   00000831   00000909   00000873   00000741   00000472  
   410.000000   00000977   00000749   00000865   00000809   00000522  
   405.000000   00000676   00001083   00000997   00000908   00000974  
   400.000000   00000970   00001038   00001129   00001792   00001069  
   395.000000   00001071   00000862   00001521   00001489   00001660  
   390.000000   00002457   00002785   00002297   00002727   00003527  
   385.000000   00004170   00004979   00005662   00007556   00008224  
   380.000000   00011235   00014041   00006953   00011738   00017180  
   375.000000   00023723   00036678   00051424   00072372   00097366  
   370.000000   00134876   00175790   00234823   00293773   00356023  
   365.000000   00430858   00487762   00554285   00609059   00636527  
   360.000000   00650132   00654694   00650629   00615351   00576419  
   355.000000   00537483   00474430   00421182   00363984   00308774  
   350.000000   00270362   00221684   00186169   00157321   00126141  
   345.000000   00101520   00081803   00064926   00053993   00038349  
   340.000000   00035037   00026248   00019881   00014791   00012334  
   335.000000   00010207   00007727   00006773   00005417   00003126  
   330.000000   00001703   00002843   00002737   00001809   00000329  
   325.000000   00001006   00000633   00000008  -00000385   00001839  
   320.000000   00000689   00001042  -00000521  -00000628  -00000065  
   315.000000  -00000784  -00000559  -00000452  -00000085  -00000324  
   310.000000  -00000642  -00000477  -00000494  -00000789  -00000257  
   305.000000  -00000374  -00000236  -00000408  -00000571  -00000401  
   300.000000  -00000081  -00000516  -00000508  -00000187  -00000394  
   295.000000  -00000549  -00000302  -00000119  -00000233  -00000284  
   290.000000  -00000528  -00000524  -00000664  -00000639  -00000441  
   285.000000  -00000402  -00000583  -00000541  -00000563  -00000765  
   280.000000  -00000739  -00000550  -00000568  -00000537  -00000682  
   275.000000  -00000809  -00000619  -00000426  -00000362  -00000313  
   270.000000  -00000310  -00000375  -00000368  -00000530  -00000596  
   265.000000  -00000445  -00000374  -00000464  -00000502  -00000333  
   260.000000  -00000267  -00000256  -00000361  -00000292  -00000092  
   255.000000  -00000072  -00000289  -00000282  -00000190  -00000169  
   250.000000  -00000141  
##END= 
