#Date: 2022-07-14 11:43:06
#Source: Sample6.Sample


#Data:
nm,%T
900,105.789461400579
899,105.009798124533
898,103.976010781956
897,105.633005104187
896,105.164400041337
895,101.488679965549
894,104.984956520365
893,104.771250341189
892,103.101983013708
891,102.186403374359
890,104.8687680424
889,105.416202268366
888,103.860808120442
887,102.937514627175
886,106.311118119893
885,105.291413229016
884,103.407244115666
883,103.859223496287
882,103.661831421538
881,104.336801297512
880,102.01361662191
879,105.139527967877
878,105.366398908776
877,102.893356687001
876,107.453741205744
875,107.575443487244
874,103.83320586965
873,102.96491475299
872,106.606968868112
871,102.882288731373
870,102.243290506265
869,106.33328503854
868,106.799277791394
867,109.454038480506
866,107.750861548571
865,106.014816950617
864,107.182690469743
863,102.389565218609
862,106.805400073539
861,107.396179374854
860,105.069702190693
859,97.6338052167503
858,103.473309620013
857,97.9365597789401
856,102.898485199626
855,100.72495795894
854,100.14418991292
853,97.1801798643771
852,100.810951699644
851,100.954361521679
850,103.253351121212
849,101.263379663848
848,99.7875215917286
847,103.610567743885
846,97.0766772921272
845,100.880944673857
844,97.9738753226209
843,100.34940771297
842,102.152148475871
841,100.445700493751
840,98.0462065654462
839,100.2897376942
838,97.79356015338
837,97.9903801353113
836,99.2435380331245
835,102.523474862997
834,101.069881668209
833,100.167497156273
832,99.3956532166945
831,100.424915196368
830,99.6260694283739
829,101.883663616263
828,100.232971802383
827,100.18487005418
826,98.5850844635478
825,100.623465526496
824,101.422962318113
823,99.4532619562382
822,98.8723367258224
821,100.715443576251
820,101.324322532262
819,100.86595208478
818,99.4854961953972
817,100.134283864479
816,100.016778760003
815,98.722012215973
814,99.2123055822042
813,100.204664016323
812,99.3513599695514
811,100.005506989424
810,100.715881250298
809,99.1845257155372
808,100.608637954328
807,101.693742797132
806,100.158699991497
805,99.7527129209793
804,99.9802944433039
803,99.8098584859265
802,100.447946096967
801,99.0535642031176
800,99.6987921766736
799,100.023632227739
798,100.202337444176
797,100.94528822221
796,100.126816510249
795,101.650575650387
794,101.468595574954
793,100.644182277966
792,100.471974713553
791,100.435227414754
790,99.9559834094787
789,100.999301762915
788,100.119533860934
787,99.919117898008
786,101.68058966653
785,100.764520716185
784,100.548610771831
783,100.40036245741
782,100.289254548801
781,100.51021303318
780,100.710645953491
779,99.3011405406216
778,100.941657891136
777,101.009565532718
776,99.5233607347364
775,99.8135182564965
774,102.240001428636
773,102.058398658243
772,100.339768086471
771,99.0038282296136
770,99.4431093020413
769,101.578109029594
768,101.247611401319
767,99.8682526191884
766,100.011193700825
765,100.248032621924
764,100.333677714859
763,100.713646998293
762,100.886557931408
761,99.7377708894795
760,99.3168685444708
759,100.569178393717
758,101.97425149685
757,101.407519201426
756,99.9500420663111
755,100.486873471326
754,100.95215333055
753,100.269573207628
752,99.7647380166765
751,100.162299728472
750,100.192842175471
749,99.6406329711034
748,99.3257100315949
747,100.925117461868
746,100.610040578164
745,99.6318612161052
744,100.635979810462
743,101.304463030987
742,100.806012478061
741,99.5572724804995
740,98.6957808670528
739,99.4868271829412
738,99.6020175281462
737,99.516456089252
736,100.40159769202
735,99.425402313127
734,98.8242986358
733,99.1553863077447
732,99.8346298306543
731,100.083296832604
730,98.9930039772644
729,98.4639996362395
728,100.161430119998
727,100.377412671495
726,98.4481010085233
725,98.4350234601009
724,99.7251501684292
723,100.951157525617
722,100.233653755556
721,100.41818396259
720,101.140188307399
719,99.9645772426818
718,99.9762603269897
717,100.044087413201
716,100.226536295499
715,100.928617908435
714,100.02057232282
713,99.3347322859363
712,100.642740379409
711,100.101604061465
710,99.6889118977572
709,100.169601774898
708,100.127766800898
707,99.2924742665641
706,99.4063691893408
705,99.5070471927813
704,100.18342863463
703,100.174048621846
702,99.5653017550563
701,101.024748637076
700,102.330002726022
699,100.481412692104
698,100.303975508544
697,100.491358328187
696,101.640210091269
695,100.848591112197
694,99.0343607396975
693,100.094639856553
692,99.6969597156295
691,99.2289778492051
690,99.3304009746522
689,100.979839332782
688,100.098428143526
687,99.259346994524
686,98.4561240361786
685,99.9818616138157
684,100.492830046945
683,99.4744943216516
682,99.5748938305853
681,100.507499890787
680,100.805088945968
679,100.426093504232
678,100.595391871501
677,101.446160912842
676,99.922271874281
675,100.885942502312
674,100.480264640422
673,99.5780088124191
672,100.311885461413
671,99.717916399206
670,99.712909595712
669,99.9775207956936
668,99.9348328143884
667,100.327971236604
666,101.447311719378
665,98.7117546737082
664,99.0251330140039
663,98.5056023071045
662,98.7493117279486
661,98.5424676996105
660,99.3813420935637
659,101.175850403039
658,100.306088224215
657,99.9690100960091
656,100.465085879631
655,100.633451428835
654,99.4631802820807
653,97.6716586065936
652,99.0018600911968
651,100.000880838034
650,99.9823338346734
649,99.646403537452
648,101.340298397155
647,99.855844181271
646,99.6437979891996
645,100.017745881332
644,99.9607280486194
643,100.137569257528
642,100.540659826935
641,101.356237386323
640,99.909245360772
639,98.5209772281564
638,99.6473018551897
637,100.031037557587
636,99.3416338658222
635,99.0849186726056
634,99.120634039904
633,100.085240215808
632,99.7959208383151
631,100.465152051411
630,100.764850998116
629,100.293409284025
628,99.7086789684226
627,98.9212629839132
626,100.882897668906
625,99.4344860713557
624,100.032237512205
623,98.8196989722284
622,99.7219730305118
621,99.6477618570655
620,100.298792681472
619,99.756086776819
618,99.9820606003967
617,99.1939151136132
616,100.421486333779
615,100.535006323661
614,100.469095280684
613,101.029407627578
612,100.683368444516
611,98.9501322702571
610,101.211299220731
609,100.330684908207
608,100.213403208104
607,100.20748870213
606,98.7186999956997
605,101.163897976138
604,99.8079708425103
603,99.7233664162967
602,100.222144163936
601,101.175768796164
600,100.484481931555
599,99.7595799509312
598,101.319974872636
597,100.979620405329
596,99.6790787071852
595,100.387961004145
594,100.476946222485
593,101.897122673826
592,99.7961483949964
591,100.449663297539
590,101.35357197327
589,100.213612549161
588,98.7717351045464
587,100.41354034838
586,101.930425991144
585,98.4278716880155
584,100.643940838572
583,101.991370954966
582,99.5079019056988
581,99.3710846101047
580,98.617539142462
579,98.971656120942
578,100.168822294461
577,98.8475638243178
576,99.9683097831435
575,100.809428255337
574,101.089940910425
573,103.246161567507
572,101.300433760877
571,100.638519217477
570,98.9348565203863
569,99.7953708962206
568,101.486411155061
567,100.257057911709
566,99.1777214906009
565,100.800418344614
564,100.814110395408
563,99.7652195773171
562,100.693497363968
561,99.7252620407325
560,99.0077626878311
559,100.218168088293
558,100.568354529389
557,99.8647045049513
556,99.5334585144687
555,100.800578595559
554,100.346525284552
553,97.8843924719855
552,100.098155040431
551,100.3471528259
550,100.287246836583
549,100.492927324634
548,99.3410348447419
547,100.911348146612
546,100.498871412084
545,98.7308813681813
544,100.971046889238
543,101.052834343997
542,100.550016326449
541,100.591727557457
540,100.857535497503
539,100.386914894053
538,100.226099810268
537,100.04420860068
536,100.88076893356
535,100.533358737662
534,99.0710895865447
533,100.554356946564
532,100.368325979043
531,100.245612723107
530,99.548210585024
529,101.045460713117
528,101.536826327519
527,99.4561647104536
526,99.2152120569112
525,100.565626280496
524,99.981438735598
523,98.5247676603115
522,98.7772759774923
521,99.6943711914694
520,99.5045161773726
519,98.204970230096
518,99.5527506621394
517,100.853216383822
516,100.351506030568
515,99.4908358935997
514,100.276982528522
513,100.968972129829
512,99.7866331463334
511,99.9472329827894
510,100.824670545097
509,100.200752329025
508,99.5349150231601
507,100.729978066053
506,100.592989325498
505,100.172943864047
504,100.141587315612
503,99.8601115614912
502,100.631492572914
501,100.154052028884
500,99.3474600388478
499,99.9719016177117
498,100.323278509465
497,99.9335370452429
496,100.125596382411
495,99.808769702713
494,99.7670308856751
493,100.521845217059
492,99.8694389031205
491,99.0198515726646
490,99.6374648407441
489,99.7609293757718
488,99.3035143955236
487,99.9423213830986
486,100.647243692498
485,100.48949260391
484,99.3528736210836
483,99.7650304036663
482,99.6561517390098
481,100.101789235076
480,100.412348248762
479,100.486488665139
478,101.491491528956
477,100.247276799594
476,99.7642955601138
475,101.444209176227
474,100.962911466217
473,100.977192069927
472,100.80042989094
471,99.7298146974935
470,99.82380889261
469,100.199907335258
468,99.3831731956869
467,99.9450755212427
466,98.9862684351136
465,98.7378559282182
464,99.7880046388664
463,99.3811542948905
462,99.386256649817
461,99.6719112113861
460,99.8841973349717
459,100.422189656702
458,100.55385117032
457,100.576488082379
456,99.6038023807266
455,99.2551359224975
454,100.074124325126
453,99.4603086515718
452,99.1344401568741
451,99.2607109056296
450,99.1640046873298
449,98.9086273147177
448,99.2484339757346
447,99.3853091631322
446,100.172986177798
445,100.130891323166
444,99.7101462964071
443,100.642716135293
442,99.7443776714115
441,97.9559351289007
440,100.700905321442
439,100.181327702397
438,99.8215166771831
437,99.5406829898754
436,99.5278032239863
435,99.784840026829
434,99.3286696082759
433,99.4069385342964
432,100.954554774272
431,100.006563361184
430,99.5010709770609
429,99.833015178368
428,101.300035733296
427,101.575466019178
426,100.089210905863
425,100.642238845449
424,100.822991778371
423,100.222907152942
422,100.547961069463
421,99.7989974865764
420,100.487875211776
419,100.277261010488
418,98.3777508667989
417,98.6456982498932
416,100.922433945566
415,99.5746683589758
414,99.6656445698284
413,100.772854915923
412,100.366893539476
411,100.224362518674
410,99.5058946619019
409,99.2531472686502
408,99.5098986378993
407,99.6375625316396
406,100.568750524604
405,99.8319013503294
404,99.2171842815583
403,99.4421726742882
402,101.048256330661
401,101.775870025499
400,101.698252653057
399,98.9794377946397
398,99.1022828430291
397,100.331305428671
396,98.6171992996191
395,100.004813301436
394,100.227927271534
393,100.545619183973
392,99.7982371724852
391,100.163991068334
390,100.114109306602
389,100.139722616961
388,98.8104901987222
387,99.4608305676336
386,100.165597024455
385,98.8433338380124
384,98.8431909368066
383,98.38818665779
382,99.0181789604959
381,100.37433841503
380,98.700514146925
379,100.300216485119
378,94.5820400698006
377,101.18854391746
376,100.492495723562
375,99.4067566002137
374,97.3192764166134
373,99.0122840669047
372,101.356014699453
371,101.645394405752
370,100.466979257082
369,100.300677952965
368,101.468059605842
367,99.3283378185482
366,101.643985447977
365,100.072390662889
364,100.341818752804
363,101.537937995628
362,99.4189418442551
361,102.00469218312
360,100.351999656424
359,99.9963821036868
358,99.5823847811721
357,100.70791270547
356,101.12433654959
355,99.7187165516112
354,99.5428954706671
353,101.064885074002
352,101.440434205117
351,99.5324933133684
350,99.9031880809089
349,100.956332001913
348,100.080355287618
347,100.233702805532
346,100.284951186472
345,101.592891984076
344,99.7657388437817
343,98.6891522722142
342,101.872078551817
341,100.959481313328
340,98.5585046586112
339,99.8252898491116
338,101.174007295484
337,101.039288919759
336,99.3857142873877
335,98.3793728223807
334,100.190919425883
333,100.908505253484
332,99.6681641708758
331,99.5743095645104
330,101.75429564931
329,99.9176453649783
328,100.290996559407
327,101.216458499414
326,101.673182284427
325,101.663197941147
324,100.253800078286
323,101.427437436024
322,101.214560256655
321,101.258053381159
320,101.953342048061
319,100.501564093059
318,100.689358502064
317,100.123284716268
316,100.247064687222
315,98.1418361634031
314,99.6534183185038
313,100.260760020977
312,101.12983794879
311,98.8350884966207
310,98.7916174085936
309,99.0877825277721
308,100.086949566236
307,100.733511248875
306,100.622694996429
305,100.974024890696
304,100.695553611452
303,98.8180582414366
302,99.4837497718236
301,99.2351412169283
300,100.326496338947
299,99.3100643480908
298,99.3357822727172
297,100.253210612573
296,99.4094719680486
295,98.6845867353178
294,99.7772741802325
293,99.634794835947
292,99.6566997774572
291,99.0841203625079
290,99.8241486245482
289,99.9765592539726
288,99.1839330763719
287,99.7033784764536
286,101.273019158529
285,100.071777801937
284,100.605351163491
283,100.604036689929
282,99.5772712164203
281,100.481381734449
280,99.6837261512016
279,98.9531311329081
278,100.35213771558
277,100.927838424284
276,99.7590683987697
275,99.1265346249161
274,99.3993357290577
273,99.6241694587216
272,99.2556866007421
271,99.4317775449691
270,100.185360512992
269,99.6966790107374
268,99.2387716914011
267,99.5795837054085
266,100.535491100869
265,100.563853541325
264,99.6696728827158
263,99.2497237949947
262,99.9257787619629
261,99.3242123269419
260,99.0341449449251
259,100.816822134117
258,100.667841703352
257,99.600959803369
256,99.4627434243986
255,99.5515525884419
254,99.3413359594991
253,99.2159415672911
252,99.5855759697183
251,100.103502120692
250,99.8189130536959
