Created as New Dataset,IF 499nm 100 %
nm,%T
900.0,-0.00
899.0,-0.00
898.0,-0.00
897.0,-0.00
896.0,-0.00
895.0,-0.00
894.0,-0.00
893.0,-0.00
892.0,-0.00
891.0,-0.00
890.0,-0.00
889.0,0.00
888.0,-0.00
887.0,-0.00
886.0,-0.00
885.0,-0.00
884.0,-0.00
883.0,-0.00
882.0,-0.00
881.0,-0.00
880.0,-0.00
879.0,-0.00
878.0,-0.00
877.0,0.00
876.0,-0.00
875.0,-0.00
874.0,-0.00
873.0,-0.00
872.0,-0.00
871.0,-0.00
870.0,-0.00
869.0,0.00
868.0,-0.00
867.0,-0.00
866.0,-0.00
865.0,0.00
864.0,-0.00
863.0,-0.00
862.0,-0.00
861.0,-0.00
860.0,-0.02
859.0,-0.02
858.0,-0.03
857.0,-0.04
856.0,-0.04
855.0,-0.04
854.0,-0.03
853.0,-0.03
852.0,-0.03
851.0,-0.03
850.0,-0.03
849.0,-0.03
848.0,-0.03
847.0,-0.03
846.0,-0.02
845.0,-0.02
844.0,-0.02
843.0,-0.02
842.0,-0.02
841.0,-0.02
840.0,-0.02
839.0,-0.02
838.0,-0.02
837.0,-0.01
836.0,-0.02
835.0,-0.01
834.0,-0.01
833.0,-0.01
832.0,-0.01
831.0,-0.01
830.0,-0.01
829.0,-0.01
828.0,-0.01
827.0,-0.01
826.0,-0.01
825.0,-0.01
824.0,-0.01
823.0,-0.01
822.0,-0.01
821.0,-0.00
820.0,-0.00
819.0,-0.00
818.0,-0.00
817.0,-0.00
816.0,-0.00
815.0,-0.00
814.0,-0.00
813.0,-0.00
812.0,-0.00
811.0,-0.00
810.0,-0.00
809.0,-0.00
808.0,-0.00
807.0,-0.00
806.0,-0.00
805.0,-0.00
804.0,-0.00
803.0,-0.00
802.0,-0.00
801.0,-0.00
800.0,-0.00
799.0,-0.00
798.0,-0.00
797.0,-0.00
796.0,-0.00
795.0,-0.00
794.0,-0.00
793.0,-0.00
792.0,-0.00
791.0,-0.00
790.0,-0.00
789.0,-0.00
788.0,-0.00
787.0,-0.00
786.0,-0.00
785.0,-0.00
784.0,-0.00
783.0,-0.00
782.0,-0.00
781.0,-0.00
780.0,-0.00
779.0,-0.00
778.0,-0.00
777.0,-0.00
776.0,-0.00
775.0,-0.00
774.0,-0.00
773.0,-0.00
772.0,-0.00
771.0,-0.00
770.0,-0.00
769.0,-0.00
768.0,-0.00
767.0,-0.00
766.0,-0.00
765.0,-0.00
764.0,-0.00
763.0,-0.00
762.0,-0.00
761.0,-0.00
760.0,-0.00
759.0,-0.00
758.0,-0.00
757.0,-0.00
756.0,-0.00
755.0,-0.00
754.0,-0.00
753.0,-0.00
752.0,-0.00
751.0,-0.00
750.0,-0.00
749.0,-0.00
748.0,-0.00
747.0,-0.00
746.0,-0.00
745.0,-0.00
744.0,-0.00
743.0,-0.00
742.0,-0.00
741.0,-0.00
740.0,-0.00
739.0,-0.00
738.0,-0.00
737.0,-0.00
736.0,-0.00
735.0,-0.00
734.0,-0.00
733.0,-0.00
732.0,-0.00
731.0,-0.00
730.0,-0.00
729.0,-0.00
728.0,-0.00
727.0,-0.00
726.0,-0.00
725.0,-0.00
724.0,-0.00
723.0,-0.00
722.0,-0.00
721.0,-0.00
720.0,-0.00
719.0,-0.00
718.0,-0.00
717.0,-0.00
716.0,-0.00
715.0,-0.00
714.0,-0.00
713.0,-0.00
712.0,-0.00
711.0,-0.00
710.0,-0.00
709.0,-0.00
708.0,-0.00
707.0,-0.00
706.0,-0.00
705.0,-0.00
704.0,-0.00
703.0,-0.00
702.0,-0.00
701.0,-0.00
700.0,-0.00
699.0,-0.00
698.0,-0.00
697.0,-0.00
696.0,-0.00
695.0,0.00
694.0,0.00
693.0,-0.00
692.0,0.00
691.0,0.00
690.0,-0.00
689.0,-0.00
688.0,-0.00
687.0,-0.00
686.0,-0.00
685.0,-0.00
684.0,-0.00
683.0,-0.00
682.0,-0.00
681.0,-0.00
680.0,-0.00
679.0,-0.00
678.0,-0.00
677.0,-0.00
676.0,-0.00
675.0,-0.00
674.0,-0.00
673.0,0.00
672.0,-0.00
671.0,-0.00
670.0,-0.00
669.0,-0.00
668.0,-0.00
667.0,-0.00
666.0,-0.00
665.0,-0.00
664.0,-0.00
663.0,-0.00
662.0,-0.00
661.0,-0.00
660.0,-0.00
659.0,-0.00
658.0,-0.00
657.0,-0.00
656.0,-0.00
655.0,-0.00
654.0,-0.00
653.0,-0.00
652.0,-0.00
651.0,-0.00
650.0,0.00
649.0,-0.00
648.0,-0.00
647.0,-0.00
646.0,0.00
645.0,-0.00
644.0,-0.00
643.0,-0.00
642.0,-0.00
641.0,-0.00
640.0,-0.00
639.0,-0.00
638.0,-0.00
637.0,-0.00
636.0,-0.00
635.0,-0.00
634.0,-0.00
633.0,-0.00
632.0,-0.00
631.0,0.00
630.0,-0.00
629.0,-0.00
628.0,-0.00
627.0,-0.00
626.0,-0.00
625.0,-0.00
624.0,-0.00
623.0,-0.00
622.0,-0.00
621.0,-0.00
620.0,-0.00
619.0,-0.00
618.0,-0.00
617.0,-0.00
616.0,0.00
615.0,-0.00
614.0,-0.00
613.0,0.00
612.0,-0.00
611.0,0.00
610.0,-0.00
609.0,-0.00
608.0,-0.00
607.0,-0.00
606.0,-0.00
605.0,-0.00
604.0,-0.00
603.0,0.00
602.0,-0.00
601.0,-0.00
600.0,-0.00
599.0,-0.00
598.0,-0.00
597.0,-0.00
596.0,-0.00
595.0,-0.00
594.0,-0.00
593.0,0.00
592.0,-0.00
591.0,-0.00
590.0,-0.00
589.0,0.00
588.0,-0.00
587.0,0.00
586.0,-0.00
585.0,-0.00
584.0,-0.00
583.0,-0.00
582.0,-0.00
581.0,-0.00
580.0,-0.00
579.0,0.00
578.0,-0.00
577.0,-0.00
576.0,0.00
575.0,0.00
574.0,-0.00
573.0,-0.00
572.0,0.00
571.0,-0.00
570.0,0.00
569.0,0.00
568.0,-0.00
567.0,-0.00
566.0,0.00
565.0,0.00
564.0,0.00
563.0,-0.00
562.0,-0.00
561.0,-0.00
560.0,-0.00
559.0,-0.00
558.0,-0.00
557.0,-0.00
556.0,-0.00
555.0,-0.00
554.0,-0.00
553.0,-0.00
552.0,-0.00
551.0,-0.00
550.0,-0.00
549.0,-0.00
548.0,-0.00
547.0,-0.00
546.0,-0.00
545.0,-0.00
544.0,-0.00
543.0,-0.00
542.0,-0.00
541.0,-0.00
540.0,-0.00
539.0,-0.00
538.0,-0.00
537.0,-0.00
536.0,-0.00
535.0,-0.00
534.0,-0.00
533.0,-0.00
532.0,-0.00
531.0,-0.00
530.0,-0.00
529.0,-0.00
528.0,0.00
527.0,0.00
526.0,0.01
525.0,0.01
524.0,0.02
523.0,0.03
522.0,0.05
521.0,0.08
520.0,0.12
519.0,0.18
518.0,0.28
517.0,0.43
516.0,0.67
515.0,1.03
514.0,1.58
513.0,2.38
512.0,3.50
511.0,5.03
510.0,6.99
509.0,9.38
508.0,12.08
507.0,14.92
506.0,17.71
505.0,20.18
504.0,22.16
503.0,23.56
502.0,24.39
501.0,24.65
500.0,24.32
499.0,23.37
498.0,21.76
497.0,19.53
496.0,16.79
495.0,13.80
494.0,10.85
493.0,8.20
492.0,5.98
491.0,4.24
490.0,2.93
489.0,1.99
488.0,1.34
487.0,0.90
486.0,0.61
485.0,0.41
484.0,0.27
483.0,0.18
482.0,0.12
481.0,0.08
480.0,0.05
479.0,0.04
478.0,0.02
477.0,0.02
476.0,0.01
475.0,0.01
474.0,0.00
473.0,0.00
472.0,0.00
471.0,-0.00
470.0,-0.00
469.0,0.00
468.0,0.00
467.0,0.00
466.0,0.00
465.0,0.00
464.0,0.01
463.0,0.01
462.0,0.01
461.0,0.01
460.0,0.01
459.0,0.01
458.0,0.01
457.0,0.01
456.0,0.01
455.0,0.01
454.0,0.01
453.0,0.01
452.0,0.01
451.0,0.01
450.0,0.01
449.0,0.01
448.0,0.01
447.0,0.01
446.0,0.01
445.0,0.01
444.0,0.00
443.0,0.00
442.0,0.00
441.0,0.00
440.0,0.00
439.0,0.00
438.0,0.00
437.0,0.00
436.0,0.00
435.0,0.00
434.0,0.00
433.0,0.00
432.0,0.00
431.0,0.00
430.0,0.00
429.0,0.00
428.0,0.00
427.0,0.00
426.0,0.00
425.0,0.00
424.0,0.00
423.0,0.00
422.0,0.00
421.0,0.00
420.0,0.00
419.0,0.00
418.0,0.00
417.0,0.00
416.0,0.00
415.0,0.00
414.0,0.00
413.0,0.00
412.0,0.00
411.0,0.00
410.0,0.00
409.0,0.00
408.0,0.00
407.0,0.00
406.0,0.00
405.0,0.00
404.0,0.01
403.0,0.00
402.0,0.00
401.0,0.00
400.0,0.00
399.0,0.00
398.0,0.00
397.0,0.00
396.0,0.01
395.0,0.00
394.0,0.01
393.0,0.01
392.0,0.01
391.0,0.00
390.0,0.01
389.0,0.00
388.0,0.00
387.0,0.01
386.0,0.01
385.0,0.01
384.0,0.01
383.0,0.01
382.0,0.01
381.0,0.01
380.0,0.01
379.0,-0.00
378.0,-0.04
377.0,-0.04
376.0,-0.03
375.0,-0.03
374.0,-0.02
373.0,-0.02
372.0,-0.01
371.0,-0.01
370.0,-0.01
369.0,-0.00
368.0,-0.00
367.0,0.00
366.0,0.00
365.0,0.01
364.0,0.01
363.0,0.01
362.0,0.01
361.0,0.02
360.0,0.02
359.0,0.02
358.0,0.02
357.0,0.02
356.0,0.02
355.0,0.01
354.0,0.01
353.0,0.01
352.0,0.01
351.0,0.01
350.0,0.01
349.0,0.01
348.0,0.01
347.0,0.01
346.0,0.01
345.0,0.01
344.0,0.01
343.0,0.01
342.0,0.01
341.0,0.01
340.0,0.01
339.0,0.00
338.0,0.01
337.0,0.01
336.0,0.01
335.0,0.01
334.0,0.01
333.0,0.01
332.0,0.01
331.0,0.01
330.0,0.01
329.0,0.01
328.0,0.01
327.0,0.01
326.0,0.01
325.0,0.01
324.0,0.01
323.0,0.01
322.0,0.01
321.0,0.01
320.0,0.01
319.0,0.01
318.0,-0.00
317.0,-0.00
316.0,-0.00
315.0,-0.00
314.0,-0.00
313.0,-0.00
312.0,-0.00
311.0,-0.00
310.0,-0.00
309.0,-0.00
308.0,-0.00
307.0,-0.00
306.0,-0.00
305.0,-0.00
304.0,-0.00
303.0,-0.00
302.0,-0.00
301.0,-0.00
300.0,-0.00
299.0,-0.00
298.0,-0.00
297.0,-0.00
296.0,-0.00
295.0,-0.00
294.0,-0.00
293.0,-0.00
292.0,-0.00
291.0,-0.00
290.0,-0.00
289.0,-0.00
288.0,-0.00
287.0,-0.00
286.0,-0.00
285.0,-0.00
284.0,-0.00
283.0,-0.00
282.0,-0.00
281.0,-0.00
280.0,-0.00
279.0,-0.00
278.0,-0.00
277.0,-0.00
276.0,-0.00
275.0,-0.00
274.0,-0.00
273.0,-0.00
272.0,-0.00
271.0,-0.00
270.0,-0.00
269.0,-0.00
268.0,-0.00
267.0,-0.00
266.0,-0.00
265.0,-0.00
264.0,-0.00
263.0,-0.00
262.0,-0.00
261.0,-0.00
260.0,-0.00
259.0,-0.00
258.0,-0.00
257.0,-0.00
256.0,-0.00
255.0,-0.00
254.0,-0.00
253.0,-0.00
252.0,-0.00
251.0,-0.00
250.0,-0.00
