##TITLE= IF 499nm 1 %
##JCAMP-DX= 4.24
##DATA TYPE= UV/VIS SPECTRUM
##ORIGIN= Exported PE Spectrum Data File
##OWNER= Michael Matus
##DATE= 22/07/14
##TIME= 07:09:57.00
##DELTAX= -1.000000
##XUNITS= NANOMETERS
##YUNITS= TRANSMITTANCE
##XFACTOR= 1.00
##YFACTOR= 0.00000000023841857910
##FIRSTX= 900.00
##LASTX= 250.00
##NPOINTS= 651
##FIRSTY= 0.000352
##MAXY= 0.248549
##MINY= -0.000097
##XYDATA= (X++(Y..Y))
   900.000000   00014758  -00026165  -00025843   00009850  -00026824  
   895.000000   00007150   00045031   00012441   00024259   00022761  
   890.000000  -00005160   00108941  -00008487  -00035944  -00058437  
   885.000000  -00008886  -00031704  -00052819   00007901  -00060112  
   880.000000  -00040805  -00039150   00031263  -00053270  -00075564  
   875.000000  -00098239   00021371  -00016138  -00005441  -00030622  
   870.000000   00003390  -00076894  -00011295  -00116520  -00051184  
   865.000000  -00014228   00062002  -00014871   00001462  -00056069  
   860.000000  -00406785  -00022774  -00020205  -00017727  -00020695  
   855.000000  -00025887  -00020914  -00022888  -00019954  -00020784  
   850.000000  -00015692  -00023608  -00017291  -00012542  -00020899  
   845.000000  -00019224  -00015328  -00016668  -00014559  -00012771  
   840.000000  -00014412  -00011625  -00010887  -00007763  -00012767  
   835.000000  -00012454  -00011148  -00010747  -00009576  -00008343  
   830.000000  -00007800  -00006207  -00005182  -00004607  -00003584  
   825.000000  -00003650  -00004748  -00003803  -00002411  -00002561  
   820.000000  -00003464  -00002973  -00002633  -00002669  -00003266  
   815.000000  -00002296  -00000526  -00000451  -00000977  -00001544  
   810.000000  -00001579  -00002629  -00002137  -00002286  -00002142  
   805.000000  -00002029  -00002253  -00002330  -00002780  -00001428  
   800.000000  -00001765  -00002140  -00002249  -00003531  -00002814  
   795.000000  -00002551  -00001917  -00002928  -00003115  -00001126  
   790.000000  -00001577  -00002327  -00002325  -00001913  -00001990  
   785.000000  -00002367  -00001918  -00001578  -00001917  -00003161  
   780.000000  -00002859  -00001464  -00001464  -00002332  -00002069  
   775.000000  -00001541  -00001841  -00002070  -00002033  -00001769  
   770.000000  -00002224  -00001695  -00002296  -00002261  -00001319  
   765.000000  -00001960  -00002112  -00001281  -00001546  -00002074  
   760.000000  -00001696  -00001394  -00001696  -00001624  -00001019  
   755.000000  -00001282  -00001698  -00001962  -00001584  -00000981  
   750.000000  -00000755  -00000793  -00001247  -00001059  -00001286  
   745.000000  -00001475  -00001626  -00001589  -00001475  -00002496  
   740.000000  -00002118  -00001550  -00001476  -00001781  -00002046  
   735.000000  -00001553  -00000644  -00000985  -00001592  -00001439  
   730.000000  -00001666  -00001668  -00001783  -00001975  -00002506  
   725.000000  -00002087  -00001708  -00001364  -00001101  -00001559  
   720.000000  -00001406  -00000988  -00000950  -00001369  -00001521  
   715.000000  -00000912  -00001522  -00001599  -00000608  -00000723  
   710.000000  -00001295  -00001105  -00000076  -00000876  -00001220  
   705.000000  -00000686  -00000724  -00001336  -00001259  -00000267  
   700.000000  -00000572  -00000955  -00000841  -00001300  -00000305  
   695.000000  -00000611  -00000420  -00000765  -00000344   00000191  
   690.000000  -00000765  -00001071  -00001262  -00000612  -00001418  
   685.000000  -00001419  -00001265  -00000958  -00001188  -00000690  
   680.000000  -00000805  -00000690  -00000499  -00001922  -00002074  
   675.000000  -00001383  -00001461  -00000962  -00001154  -00000923  
   670.000000  -00000807  -00001578  -00001348  -00001078  -00000692  
   665.000000  -00000347  -00000462  -00000385  -00000809  -00000809  
   660.000000  -00000925  -00000848  -00000385  -00000540  -00000732  
   655.000000  -00000578  -00001274  -00001506  -00000733  -00000579  
   650.000000  -00001662  -00000927  -00000967  -00000502  -00000851  
   645.000000  -00000852  -00000735  -00001084  -00000697  -00000892  
   640.000000  -00001279  -00001086  -00001202  -00000388  -00000698  
   635.000000  -00000310  -00000892  -00000465  -00000388  -00000893  
   630.000000  -00000738  -00000972  -00000855  -00001710  -00000971  
   625.000000  -00000777  -00000856  -00000194  -00000661  -00000468  
   620.000000  -00001130  -00000233  -00001286  -00000662  -00000975  
   615.000000  -00000389  -00000195  -00000546  -00000506  -00001092  
   610.000000  -00000897  -00000703  -00000664  -00000703  -00000117  
   605.000000  -00000626  -00000429  -00000782  -00000587  -00000548  
   600.000000  -00000234   00000312  -00000352   00000000  -00000548  
   595.000000  -00000196   00000000  -00000549  -00000627  -00000627  
   590.000000  -00000589  -00000392  -00000746  -00000078  -00000117  
   585.000000  -00000589  -00000472  -00000708  -00000472  -00000354  
   580.000000  -00000314   00000039   00000000  -00000788  -00000078  
   575.000000  -00000749  -00000276  -00000118  -00000039  -00000316  
   570.000000  -00000158  -00000237   00000592   00000395   00000316  
   565.000000   00000198   00000396   00000237  -00000395  -00001147  
   560.000000  -00001188  -00002179  -00001543  -00000990  -00001387  
   555.000000  -00001704  -00001466  -00001070  -00000952  -00000675  
   550.000000  -00000238  -00000198   00000000   00000993   00001827  
   545.000000   00002742   00004135   00005213   00007244   00009359  
   540.000000   00011711   00015258   00019840   00026036   00033615  
   535.000000   00043610   00057521   00074765   00097436   00130015  
   530.000000   00175001   00235073   00318770   00437191   00605987  
   525.000000   00853253   01214942   01744562   02529847   03723125  
   520.000000   05543442   08345380   12708541   19489784   30038740  
   515.000000   45837401   69834651   105574003   155050608   221539656  
   510.000000   306567855   409232101   524526331   644665717   762094623  
   505.000000   865078498   945343480   1002399253   1035284038   1042489659  
   500.000000   1023687974   977404961   905141744   808255252   690793826  
   495.000000   565871916   444828009   336413198   246381460   175270680  
   490.000000   121832795   83250300   56328535   38062873   25461480  
   485.000000   16971489   11475997   07814910   05376732   03751449  
   480.000000   02658133   01912236   01392079   01022381   00756240  
   475.000000   00563053   00422478   00320680   00246195   00190933  
   470.000000   00148313   00117321   00094055   00076003   00062359  
   465.000000   00052225   00044541   00038892   00034944   00031288  
   460.000000   00027955   00025972   00024079   00022558   00021733  
   455.000000   00019986   00018016   00016543   00015651   00014263  
   450.000000   00013277   00012897   00011602   00010931   00010645  
   445.000000   00008130   00004409   00001761   00002141   00003027  
   440.000000   00002944   00003364   00003074   00003032   00002659  
   435.000000   00002832   00003418   00003207   00003211   00003169  
   430.000000   00003046   00002749   00003341   00003263   00002967  
   425.000000   00002925   00003307   00002758   00002291   00002548  
   420.000000   00002548   00002592   00003490   00003446   00003622  
   415.000000   00003364   00002255   00003194   00003582   00003202  
   410.000000   00003457   00003370   00003335   00003934   00003930  
   405.000000   00003766   00002653   00002356   00003341   00002744  
   400.000000   00003816   00004537   00003855   00003819   00004466  
   395.000000   00003994   00004084   00004252   00004563   00005083  
   390.000000   00005427   00005000   00004218   00006034   00006171  
   385.000000   00005987   00007718   00008694   00009993   00010968  
   380.000000   00013828   00013138  -00011462  -00004986   00005433  
   375.000000   00020539   00032333   00051674   00080986   00111314  
   370.000000   00150598   00199030   00261597   00317129   00389473  
   365.000000   00456803   00530827   00591381   00646140   00678694  
   360.000000   00698160   00693600   00670766   00645209   00599321  
   355.000000   00534600   00485088   00432516   00372855   00322382  
   350.000000   00274549   00231568   00188758   00157138   00126010  
   345.000000   00107642   00086850   00067960   00053940   00045434  
   340.000000   00035549   00027640   00024674   00019030   00015934  
   335.000000   00013901   00011565   00010583   00006735   00005784  
   330.000000   00007263   00006014   00006352   00006309   00007531  
   325.000000   00006148   00006524   00007582   00005675   00006683  
   320.000000   00006185   00005538  -00001165  -00003061  -00003364  
   315.000000  -00003748  -00004399  -00003492  -00004273  -00004360  
   310.000000  -00004311  -00004306  -00004487  -00003923  -00003060  
   305.000000  -00004184  -00004999  -00004660  -00003712  -00003747  
   300.000000  -00003193  -00003321  -00003623  -00003458  -00002679  
   295.000000  -00003326  -00003931  -00003932  -00003499  -00003111  
   290.000000  -00004489  -00004615  -00004446  -00004708  -00005310  
   285.000000  -00005312  -00005662  -00005701  -00005534  -00005753  
   280.000000  -00005531  -00006008  -00005188  -00005104  -00005190  
   275.000000  -00004925  -00004758  -00004458  -00004935  -00005289  
   270.000000  -00004683  -00004204  -00004507  -00004249  -00004039  
   265.000000  -00004561  -00004430  -00003868  -00003699  -00003963  
   260.000000  -00003613  -00002914  -00002656  -00002613  -00002744  
   255.000000  -00003095  -00003227  -00003139  -00002528  -00002658  
   250.000000  -00002790  
##END= 
