##TITLE= NG11 #68 0,1 %
##JCAMP-DX= 4.24
##DATA TYPE= UV/VIS SPECTRUM
##ORIGIN= Exported PE Spectrum Data File
##OWNER= Michael Matus
##DATE= 22/07/14
##TIME= 10:11:29.00
##DELTAX= -1.000000
##XUNITS= NANOMETERS
##YUNITS= TRANSMITTANCE
##XFACTOR= 1.00
##YFACTOR= 0.00000011920928955078
##FIRSTX= 900.00
##LASTX= 250.00
##NPOINTS= 651
##FIRSTY= 40.225955
##MAXY= 0.603656
##MINY= 0.000000
##XYDATA= (X++(Y..Y))
   900.000000   3374397   3401991   3465128   3407390   3458703  
   895.000000   3473173   3471434   3457583   3528679   3558558  
   890.000000   3550015   3523422   3530765   3675316   3557142  
   885.000000   3516040   3555029   3640719   3501407   3548876  
   880.000000   3514715   3583521   3591168   3563193   3649320  
   875.000000   3697308   3632417   3627794   3723551   3606139  
   870.000000   3496443   3716770   3822008   3718622   3743755  
   865.000000   3623452   3763120   3785285   3687636   3825999  
   860.000000   3807486   2752012   2624860   2579420   2691212  
   855.000000   2821906   2697582   2845073   2898404   2936111  
   850.000000   2916879   2934698   2960885   3141158   3018051  
   845.000000   3147735   3305005   3253888   3306227   3382377  
   840.000000   3351086   3443699   3384808   3452797   3499131  
   835.000000   3423206   3597597   3625124   3592335   3701329  
   830.000000   3732595   3705433   3775942   3744017   3852789  
   825.000000   3810584   3776833   3899921   3844120   3850756  
   820.000000   3866108   3869016   3934014   3927419   3879757  
   815.000000   4054870   4009355   4004333   4021863   4040327  
   810.000000   4047485   3980157   3982721   4105162   4040679  
   805.000000   4053453   4073554   4114706   4079283   4065819  
   800.000000   4099911   4183502   4115553   4101200   4148847  
   795.000000   4118907   4122545   4137526   4114808   4144683  
   790.000000   4170205   4239809   4272405   4210138   4213946  
   785.000000   4246210   4211251   4243576   4244153   4222441  
   780.000000   4211562   4230677   4340186   4377669   4234022  
   775.000000   4276742   4300139   4303299   4323524   4374879  
   770.000000   4385379   4325100   4294934   4351655   4292738  
   765.000000   4304354   4426932   4430342   4414281   4435760  
   760.000000   4459451   4463782   4416901   4420786   4426707  
   755.000000   4431644   4489668   4505488   4490416   4527371  
   750.000000   4515657   4513946   4516739   4541628   4594686  
   745.000000   4557118   4522469   4577499   4569379   4575843  
   740.000000   4597585   4570928   4606653   4565412   4568125  
   735.000000   4637619   4616065   4604146   4626661   4605542  
   730.000000   4603677   4598166   4636859   4681508   4597579  
   725.000000   4591584   4611126   4596701   4645576   4663862  
   720.000000   4641104   4635884   4630527   4674916   4659840  
   715.000000   4638188   4643596   4642944   4584481   4601527  
   710.000000   4633998   4632324   4666423   4643897   4700767  
   705.000000   4669999   4619797   4636221   4623325   4573864  
   700.000000   4584777   4571044   4604762   4576535   4600150  
   695.000000   4646008   4596333   4579090   4575711   4584703  
   690.000000   4602896   4576017   4517141   4482873   4448521  
   685.000000   4482884   4463811   4447044   4505466   4446834  
   680.000000   4444354   4479404   4415290   4398142   4388622  
   675.000000   4380552   4435867   4369447   4333632   4364038  
   670.000000   4357103   4361512   4374889   4316904   4298280  
   665.000000   4326687   4359624   4320757   4315226   4335023  
   660.000000   4326122   4285139   4304561   4277236   4294214  
   655.000000   4343758   4287833   4323509   4347417   4354212  
   650.000000   4358197   4318920   4324305   4260604   4266811  
   645.000000   4287705   4379513   4266560   4288349   4342374  
   640.000000   4307944   4325231   4303296   4328170   4372888  
   635.000000   4255008   4346513   4339255   4334960   4351124  
   630.000000   4305256   4418583   4354161   4301897   4374823  
   625.000000   4421718   4298009   4367069   4338548   4344966  
   620.000000   4311270   4391655   4430713   4378702   4337696  
   615.000000   4420730   4352723   4411647   4365780   4338980  
   610.000000   4411126   4380542   4301274   4406917   4337715  
   605.000000   4383722   4406054   4365972   4401268   4366203  
   600.000000   4409105   4427044   4384810   4372585   4411548  
   595.000000   4319645   4375436   4399702   4385060   4403925  
   590.000000   4322178   4440647   4432071   4372567   4382828  
   585.000000   4424087   4458174   4440914   4391963   4457396  
   580.000000   4506058   4488224   4480895   4497035   4509573  
   575.000000   4513559   4512919   4503742   4591626   4550774  
   570.000000   4594658   4634693   4536632   4581945   4613432  
   565.000000   4656258   4631806   4550289   4552769   4516564  
   560.000000   4542535   4583409   4545121   4595210   4610374  
   555.000000   4563797   4581307   4543191   4561974   4576225  
   550.000000   4560343   4584945   4582420   4521266   4555101  
   545.000000   4571135   4591368   4597339   4555249   4543992  
   540.000000   4546343   4508287   4500990   4483247   4496322  
   535.000000   4505196   4473375   4507113   4511474   4481971  
   530.000000   4443842   4425253   4450423   4414530   4363512  
   525.000000   4403573   4423179   4340153   4378675   4410369  
   520.000000   4394485   4384332   4411425   4467151   4500074  
   515.000000   4508774   4617279   4670940   4679810   4784196  
   510.000000   4884084   4913417   4942976   4996996   5050096  
   505.000000   5035485   5013952   5063835   5015350   4976562  
   500.000000   4982263   4974579   4965413   4907899   4897477  
   495.000000   4889645   4802539   4773523   4754104   4691243  
   490.000000   4670766   4679666   4649975   4583816   4543137  
   485.000000   4541858   4513796   4397517   4306165   4247319  
   480.000000   4225179   4223739   4292206   4379620   4391738  
   475.000000   4352232   4379150   4434385   4410923   4404235  
   470.000000   4441041   4539909   4571710   4572059   4665530  
   465.000000   4691300   4678098   4745823   4760923   4779078  
   460.000000   4791863   4791896   4789159   4738570   4728703  
   455.000000   4742531   4670065   4659241   4630045   4554467  
   450.000000   4531477   4521832   4495704   4454118   4372542  
   445.000000   4337591   4322587   4232504   4222190   4251068  
   440.000000   4257281   4295726   4279480   4348364   4306289  
   435.000000   4248387   4312224   4331340   4363925   4328049  
   430.000000   4273397   4326017   4306336   4264689   4302174  
   425.000000   4257448   4223591   4289246   4231749   4191058  
   420.000000   4159144   4208122   4231557   4205123   4180455  
   415.000000   4235237   4212371   4252397   4245794   4242083  
   410.000000   4289382   4318045   4362780   4402145   4324292  
   405.000000   4379453   4382791   4435747   4442674   4407514  
   400.000000   4430020   4404699   4301970   4288567   4269305  
   395.000000   4220032   4213776   4147006   4084276   4038141  
   390.000000   3862087   3841077   3717814   3503559   3426620  
   385.000000   3252018   3069737   2949945   2818462   2705830  
   380.000000   2592364   2484130   1452963   1635972   1815751  
   375.000000   2086471   2271569   2476538   2634341   2737512  
   370.000000   2792244   2817512   2774575   2744027   2700518  
   365.000000   2621619   2559553   2497443   2498486   2338490  
   360.000000   2267620   2194125   2054573   1983729   1907045  
   355.000000   1788287   1721169   1570851   1489008   1405724  
   350.000000   1278040   1182701   1096584   982131   895576  
   345.000000   801196   717287   639057   551316   479351  
   340.000000   414622   348794   299579   245556   200125  
   335.000000   162007   126533   99369   76336   57442  
   330.000000   42059   29722   20860   14001   09143  
   325.000000   05661   03421   02060   01178   00632  
   320.000000   00331   00163   00067   00027   00013  
   315.000000   00005   00003   00002   00001   00001  
   310.000000   00000   00002   00001   00000   00001  
   305.000000   00002   00001   00002   00002   00002  
   300.000000   00002   00001   00002   00002   00001  
   295.000000   00001   00001   00002   00001   00001  
   290.000000   00001   00002   00002   00002   00002  
   285.000000   00002   00002   00002   00002   00002  
   280.000000   00002   00002   00002   00002   00003  
   275.000000   00002   00002   00002   00002   00002  
   270.000000   00002   00002   00003   00003   00002  
   265.000000   00002   00002   00003   00003   00003  
   260.000000   00003   00003   00003   00003   00003  
   255.000000   00003   00003   00003   00003   00003  
   250.000000   00003  
##END= 
