##TITLE= blank 100 %
##JCAMP-DX= 4.24
##DATA TYPE= UV/VIS SPECTRUM
##ORIGIN= Exported PE Spectrum Data File
##OWNER= Michael Matus
##DATE= 22/07/14
##TIME= 10:49:35.00
##DELTAX= -1.000000
##XUNITS= NANOMETERS
##YUNITS= TRANSMITTANCE
##XFACTOR= 1.00
##YFACTOR= 0.00000011920928955078
##FIRSTX= 900.00
##LASTX= 250.00
##NPOINTS= 651
##FIRSTY= 100.004251
##MAXY= 1.000842
##MINY= 0.999639
##XYDATA= (X++(Y..Y))
   900.000000   8388964   8388757   8388649   8388807   8388823  
   895.000000   8389047   8388715   8389470   8388715   8388865  
   890.000000   8388682   8388865   8388525   8388690   8388533  
   885.000000   8387986   8388442   8388881   8388873   8388516  
   880.000000   8388641   8389428   8389113   8389146   8389138  
   875.000000   8388740   8388574   8388185   8388674   8388923  
   870.000000   8388475   8388284   8388409   8388740   8388301  
   865.000000   8388947   8388898   8389014   8388989   8388392  
   860.000000   8392721   8394948   8395019   8393788   8389736  
   855.000000   8391351   8389984   8393420   8393653   8386738  
   850.000000   8392697   8394083   8388657   8394390   8392203  
   845.000000   8388963   8390587   8389249   8395670   8390278  
   840.000000   8388861   8390760   8391725   8391198   8389313  
   835.000000   8391901   8392314   8389260   8391585   8389764  
   830.000000   8391151   8390554   8390896   8392004   8391473  
   825.000000   8390242   8389834   8387796   8388608   8390307  
   820.000000   8386171   8390321   8390986   8390517   8389423  
   815.000000   8387222   8390008   8391225   8391272   8391397  
   810.000000   8392429   8392548   8388710   8388844   8388868  
   805.000000   8390524   8388008   8389791   8389191   8388466  
   800.000000   8389908   8391288   8390610   8390940   8390302  
   795.000000   8391468   8391642   8390121   8391791   8391129  
   790.000000   8389995   8388631   8388206   8386709   8386559  
   785.000000   8388970   8389742   8388686   8387804   8389498  
   780.000000   8389340   8389269   8389293   8389041   8388221  
   775.000000   8390200   8390082   8389396   8389932   8390318  
   770.000000   8391737   8391690   8390090   8390263   8390303  
   765.000000   8389633   8388024   8387448   8389341   8390138  
   760.000000   8390209   8389270   8388410   8388584   8388789  
   755.000000   8388797   8390107   8391196   8390565   8390336  
   750.000000   8389207   8389563   8391537   8392327   8391585  
   745.000000   8390637   8390787   8390250   8389492   8389208  
   740.000000   8388868   8388608   8387983   8388639   8389912  
   735.000000   8388908   8388023   8389651   8390411   8389620  
   730.000000   8389367   8389391   8389035   8389138   8388687  
   725.000000   8390064   8390943   8390254   8389787   8389843  
   720.000000   8389296   8387610   8388291   8389709   8388671  
   715.000000   8388893   8389115   8389931   8390042   8388631  
   710.000000   8389075   8389075   8388314   8389345   8389758  
   705.000000   8390837   8390576   8390012   8388052   8388695  
   700.000000   8388703   8389410   8389958   8388751   8389386  
   695.000000   8388647   8389315   8390007   8390198   8389196  
   690.000000   8388249   8388265   8388392   8387994   8388600  
   685.000000   8389078   8388711   8388719   8388520   8388328  
   680.000000   8390067   8390347   8391201   8389948   8388775  
   675.000000   8387841   8389134   8390357   8389846   8389998  
   670.000000   8390445   8388919   8389519   8388392   8387536  
   665.000000   8387568   8389095   8388568   8388528   8389152  
   660.000000   8389400   8388832   8389881   8390105   8390121  
   655.000000   8390057   8390018   8389128   8389625   8389962  
   650.000000   8389786   8389634   8387814   8387525   8388688  
   645.000000   8388527   8389057   8390325   8388174   8388487  
   640.000000   8389290   8387539   8389459   8389130   8387434  
   635.000000   8388342   8389508   8388463   8388334   8389002  
   630.000000   8389460   8388270   8386854   8388688   8387706  
   625.000000   8387762   8389501   8390444   8389171   8389212  
   620.000000   8388728   8389002   8391010   8390470   8390510  
   615.000000   8390156   8390583   8388349   8389479   8388680  
   610.000000   8389051   8388035   8389697   8388664   8388632  
   605.000000   8389488   8388583   8388422   8388680   8389505  
   600.000000   8388648   8389101   8389109   8388988   8388850  
   595.000000   8389028   8388324   8388502   8389612   8389936  
   590.000000   8389142   8390658   8389896   8388859   8389743  
   585.000000   8389264   8388956   8389662   8389411   8389273  
   580.000000   8389614   8388380   8388437   8388908   8389599  
   575.000000   8389819   8390210   8389950   8390219   8388884  
   570.000000   8387972   8386010   8387272   8388257   8388396  
   565.000000   8387474   8388779   8389219   8390099   8390662  
   560.000000   8390222   8389382   8389293   8389309   8389734  
   555.000000   8389563   8388861   8389106   8389940   8388877  
   550.000000   8389924   8388771   8388648   8390015   8390548  
   545.000000   8388886   8389238   8390198   8389829   8390395  
   540.000000   8390183   8389929   8390807   8389979   8389330  
   535.000000   8389626   8389676   8389709   8389479   8389290  
   530.000000   8388813   8388492   8388072   8388673   8389531  
   525.000000   8390265   8390595   8390060   8389928   8388698  
   520.000000   8387476   8388277   8388467   8388930   8388756  
   515.000000   8388442   8388765   8388351   8388947   8389469  
   510.000000   8389055   8389361   8389022   8389014   8389271  
   505.000000   8388657   8388848   8388940   8388366   8388034  
   500.000000   8388192   8388158   8388158   8388999   8390358  
   495.000000   8389717   8388891   8389309   8389560   8389535  
   490.000000   8389168   8389528   8389235   8389261   8390442  
   485.000000   8390267   8389186   8389421   8389036   8388078  
   480.000000   8388255   8389162   8389255   8389903   8390475  
   475.000000   8389861   8389567   8389054   8389306   8389753  
   470.000000   8389728   8388683   8387672   8388447   8389763  
   465.000000   8389780   8389392   8388894   8388819   8388295  
   460.000000   8388185   8388413   8388210   8388455   8387888  
   455.000000   8389183   8388667   8388845   8387997   8388497  
   450.000000   8389617   8390408   8390145   8388557   8388038  
   445.000000   8388599   8388156   8389366   8389852   8389068  
   440.000000   8389963   8389392   8388590   8388599   8390042  
   435.000000   8388864   8388069   8387812   8388505   8388394  
   430.000000   8387452   8387648   8387211   8388248   8388933  
   425.000000   8389457   8388865   8389148   8388333   8388642  
   420.000000   8387250   8389037   8388470   8388805   8388582  
   415.000000   8390450   8390468   8389460   8389443   8388668  
   410.000000   8389366   8388771   8390014   8389471   8388262  
   405.000000   8387010   8386715   8388175   8387717   8389810  
   400.000000   8386661   8387803   8388296   8389820   8389370  
   395.000000   8389405   8390081   8389197   8390871   8389943  
   390.000000   8387297   8390821   8387340   8388920   8388729  
   385.000000   8387765   8390336   8390935   8388686   8388547  
   380.000000   8389797   8387478   8390558   8388243   8388373  
   375.000000   8386734   8390838   8391645   8393965   8387887  
   370.000000   8391170   8390866   8385863   8387695   8387052  
   365.000000   8388008   8388738   8389320   8389025   8385583  
   360.000000   8387191   8388434   8388973   8387799   8387538  
   355.000000   8388355   8389695   8389469   8387381   8391313  
   350.000000   8392088   8388338   8387816   8386815   8391209  
   345.000000   8389060   8388599   8388007   8389643   8390878  
   340.000000   8390008   8388712   8388373   8388034   8387817  
   335.000000   8388521   8389068   8389555   8387852   8388191  
   330.000000   8385985   8388911   8391422   8387835   8388651  
   325.000000   8389493   8386255   8387965   8387020   8387861  
   320.000000   8390916   8391353   8389715   8390342   8390708  
   315.000000   8389270   8388782   8390585   8389783   8387336  
   310.000000   8388712   8389391   8388355   8390897   8389060  
   305.000000   8389382   8388642   8389356   8389765   8388547  
   300.000000   8389477   8390078   8388851   8388729   8388938  
   295.000000   8390721   8390260   8391165   8391817   8390799  
   290.000000   8389686   8390547   8389503   8389234   8388651  
   285.000000   8387599   8387973   8389512   8390242   8389512  
   280.000000   8388868   8388842   8388355   8386913   8386574  
   275.000000   8386834   8387130   8389538   8390755   8389547  
   270.000000   8388225   8388077   8388938   8388573   8387198  
   265.000000   8388599   8389112   8388651   8388207   8387285  
   260.000000   8387998   8389338   8388990   8387955   8387182  
   255.000000   8387556   8387660   8388199   8390075   8390110  
   250.000000   8388312  
##END= 
