Created as New Dataset,blank 100 %
nm,%T
900.0,100.00
899.0,100.00
898.0,100.00
897.0,100.00
896.0,100.00
895.0,100.01
894.0,100.00
893.0,100.01
892.0,100.00
891.0,100.00
890.0,100.00
889.0,100.00
888.0,100.00
887.0,100.00
886.0,100.00
885.0,99.99
884.0,100.00
883.0,100.00
882.0,100.00
881.0,100.00
880.0,100.00
879.0,100.01
878.0,100.01
877.0,100.01
876.0,100.01
875.0,100.00
874.0,100.00
873.0,99.99
872.0,100.00
871.0,100.00
870.0,100.00
869.0,100.00
868.0,100.00
867.0,100.00
866.0,100.00
865.0,100.00
864.0,100.00
863.0,100.00
862.0,100.00
861.0,100.00
860.0,100.05
859.0,100.08
858.0,100.08
857.0,100.06
856.0,100.01
855.0,100.03
854.0,100.02
853.0,100.06
852.0,100.06
851.0,99.98
850.0,100.05
849.0,100.07
848.0,100.00
847.0,100.07
846.0,100.04
845.0,100.00
844.0,100.02
843.0,100.01
842.0,100.08
841.0,100.02
840.0,100.00
839.0,100.03
838.0,100.04
837.0,100.03
836.0,100.01
835.0,100.04
834.0,100.04
833.0,100.01
832.0,100.04
831.0,100.01
830.0,100.03
829.0,100.02
828.0,100.03
827.0,100.04
826.0,100.03
825.0,100.02
824.0,100.01
823.0,99.99
822.0,100.00
821.0,100.02
820.0,99.97
819.0,100.02
818.0,100.03
817.0,100.02
816.0,100.01
815.0,99.98
814.0,100.02
813.0,100.03
812.0,100.03
811.0,100.03
810.0,100.05
809.0,100.05
808.0,100.00
807.0,100.00
806.0,100.00
805.0,100.02
804.0,99.99
803.0,100.01
802.0,100.01
801.0,100.00
800.0,100.02
799.0,100.03
798.0,100.02
797.0,100.03
796.0,100.02
795.0,100.03
794.0,100.04
793.0,100.02
792.0,100.04
791.0,100.03
790.0,100.02
789.0,100.00
788.0,100.00
787.0,99.98
786.0,99.98
785.0,100.00
784.0,100.01
783.0,100.00
782.0,99.99
781.0,100.01
780.0,100.01
779.0,100.01
778.0,100.01
777.0,100.01
776.0,100.00
775.0,100.02
774.0,100.02
773.0,100.01
772.0,100.02
771.0,100.02
770.0,100.04
769.0,100.04
768.0,100.02
767.0,100.02
766.0,100.02
765.0,100.01
764.0,99.99
763.0,99.99
762.0,100.01
761.0,100.02
760.0,100.02
759.0,100.01
758.0,100.00
757.0,100.00
756.0,100.00
755.0,100.00
754.0,100.02
753.0,100.03
752.0,100.02
751.0,100.02
750.0,100.01
749.0,100.01
748.0,100.03
747.0,100.04
746.0,100.04
745.0,100.02
744.0,100.03
743.0,100.02
742.0,100.01
741.0,100.01
740.0,100.00
739.0,100.00
738.0,99.99
737.0,100.00
736.0,100.02
735.0,100.00
734.0,99.99
733.0,100.01
732.0,100.02
731.0,100.01
730.0,100.01
729.0,100.01
728.0,100.01
727.0,100.01
726.0,100.00
725.0,100.02
724.0,100.03
723.0,100.02
722.0,100.01
721.0,100.01
720.0,100.01
719.0,99.99
718.0,100.00
717.0,100.01
716.0,100.00
715.0,100.00
714.0,100.01
713.0,100.02
712.0,100.02
711.0,100.00
710.0,100.01
709.0,100.01
708.0,100.00
707.0,100.01
706.0,100.01
705.0,100.03
704.0,100.02
703.0,100.02
702.0,99.99
701.0,100.00
700.0,100.00
699.0,100.01
698.0,100.02
697.0,100.00
696.0,100.01
695.0,100.00
694.0,100.01
693.0,100.02
692.0,100.02
691.0,100.01
690.0,100.00
689.0,100.00
688.0,100.00
687.0,99.99
686.0,100.00
685.0,100.01
684.0,100.00
683.0,100.00
682.0,100.00
681.0,100.00
680.0,100.02
679.0,100.02
678.0,100.03
677.0,100.02
676.0,100.00
675.0,99.99
674.0,100.01
673.0,100.02
672.0,100.01
671.0,100.02
670.0,100.02
669.0,100.00
668.0,100.01
667.0,100.00
666.0,99.99
665.0,99.99
664.0,100.01
663.0,100.00
662.0,100.00
661.0,100.01
660.0,100.01
659.0,100.00
658.0,100.02
657.0,100.02
656.0,100.02
655.0,100.02
654.0,100.02
653.0,100.01
652.0,100.01
651.0,100.02
650.0,100.01
649.0,100.01
648.0,99.99
647.0,99.99
646.0,100.00
645.0,100.00
644.0,100.01
643.0,100.02
642.0,99.99
641.0,100.00
640.0,100.01
639.0,99.99
638.0,100.01
637.0,100.01
636.0,99.99
635.0,100.00
634.0,100.01
633.0,100.00
632.0,100.00
631.0,100.00
630.0,100.01
629.0,100.00
628.0,99.98
627.0,100.00
626.0,99.99
625.0,99.99
624.0,100.01
623.0,100.02
622.0,100.01
621.0,100.01
620.0,100.00
619.0,100.00
618.0,100.03
617.0,100.02
616.0,100.02
615.0,100.02
614.0,100.02
613.0,100.00
612.0,100.01
611.0,100.00
610.0,100.01
609.0,99.99
608.0,100.01
607.0,100.00
606.0,100.00
605.0,100.01
604.0,100.00
603.0,100.00
602.0,100.00
601.0,100.01
600.0,100.00
599.0,100.01
598.0,100.01
597.0,100.00
596.0,100.00
595.0,100.01
594.0,100.00
593.0,100.00
592.0,100.01
591.0,100.02
590.0,100.01
589.0,100.02
588.0,100.02
587.0,100.00
586.0,100.01
585.0,100.01
584.0,100.00
583.0,100.01
582.0,100.01
581.0,100.01
580.0,100.01
579.0,100.00
578.0,100.00
577.0,100.00
576.0,100.01
575.0,100.01
574.0,100.02
573.0,100.02
572.0,100.02
571.0,100.00
570.0,99.99
569.0,99.97
568.0,99.98
567.0,100.00
566.0,100.00
565.0,99.99
564.0,100.00
563.0,100.01
562.0,100.02
561.0,100.02
560.0,100.02
559.0,100.01
558.0,100.01
557.0,100.01
556.0,100.01
555.0,100.01
554.0,100.00
553.0,100.01
552.0,100.02
551.0,100.00
550.0,100.02
549.0,100.00
548.0,100.00
547.0,100.02
546.0,100.02
545.0,100.00
544.0,100.01
543.0,100.02
542.0,100.01
541.0,100.02
540.0,100.02
539.0,100.02
538.0,100.03
537.0,100.02
536.0,100.01
535.0,100.01
534.0,100.01
533.0,100.01
532.0,100.01
531.0,100.01
530.0,100.00
529.0,100.00
528.0,99.99
527.0,100.00
526.0,100.01
525.0,100.02
524.0,100.02
523.0,100.02
522.0,100.02
521.0,100.00
520.0,99.99
519.0,100.00
518.0,100.00
517.0,100.00
516.0,100.00
515.0,100.00
514.0,100.00
513.0,100.00
512.0,100.00
511.0,100.01
510.0,100.01
509.0,100.01
508.0,100.00
507.0,100.00
506.0,100.01
505.0,100.00
504.0,100.00
503.0,100.00
502.0,100.00
501.0,99.99
500.0,100.00
499.0,99.99
498.0,99.99
497.0,100.00
496.0,100.02
495.0,100.01
494.0,100.00
493.0,100.01
492.0,100.01
491.0,100.01
490.0,100.01
489.0,100.01
488.0,100.01
487.0,100.01
486.0,100.02
485.0,100.02
484.0,100.01
483.0,100.01
482.0,100.01
481.0,99.99
480.0,100.00
479.0,100.01
478.0,100.01
477.0,100.02
476.0,100.02
475.0,100.01
474.0,100.01
473.0,100.01
472.0,100.01
471.0,100.01
470.0,100.01
469.0,100.00
468.0,99.99
467.0,100.00
466.0,100.01
465.0,100.01
464.0,100.01
463.0,100.00
462.0,100.00
461.0,100.00
460.0,99.99
459.0,100.00
458.0,100.00
457.0,100.00
456.0,99.99
455.0,100.01
454.0,100.00
453.0,100.00
452.0,99.99
451.0,100.00
450.0,100.01
449.0,100.02
448.0,100.02
447.0,100.00
446.0,99.99
445.0,100.00
444.0,99.99
443.0,100.01
442.0,100.01
441.0,100.01
440.0,100.02
439.0,100.01
438.0,100.00
437.0,100.00
436.0,100.02
435.0,100.00
434.0,99.99
433.0,99.99
432.0,100.00
431.0,100.00
430.0,99.99
429.0,99.99
428.0,99.98
427.0,100.00
426.0,100.00
425.0,100.01
424.0,100.00
423.0,100.01
422.0,100.00
421.0,100.00
420.0,99.98
419.0,100.01
418.0,100.00
417.0,100.00
416.0,100.00
415.0,100.02
414.0,100.02
413.0,100.01
412.0,100.01
411.0,100.00
410.0,100.01
409.0,100.00
408.0,100.02
407.0,100.01
406.0,100.00
405.0,99.98
404.0,99.98
403.0,99.99
402.0,99.99
401.0,100.01
400.0,99.98
399.0,99.99
398.0,100.00
397.0,100.01
396.0,100.01
395.0,100.01
394.0,100.02
393.0,100.01
392.0,100.03
391.0,100.02
390.0,99.98
389.0,100.03
388.0,99.98
387.0,100.00
386.0,100.00
385.0,99.99
384.0,100.02
383.0,100.03
382.0,100.00
381.0,100.00
380.0,100.01
379.0,99.99
378.0,100.02
377.0,100.00
376.0,100.00
375.0,99.98
374.0,100.03
373.0,100.04
372.0,100.06
371.0,99.99
370.0,100.03
369.0,100.03
368.0,99.97
367.0,99.99
366.0,99.98
365.0,99.99
364.0,100.00
363.0,100.01
362.0,100.00
361.0,99.96
360.0,99.98
359.0,100.00
358.0,100.00
357.0,99.99
356.0,99.99
355.0,100.00
354.0,100.01
353.0,100.01
352.0,99.99
351.0,100.03
350.0,100.04
349.0,100.00
348.0,99.99
347.0,99.98
346.0,100.03
345.0,100.01
344.0,100.00
343.0,99.99
342.0,100.01
341.0,100.03
340.0,100.02
339.0,100.00
338.0,100.00
337.0,99.99
336.0,99.99
335.0,100.00
334.0,100.01
333.0,100.01
332.0,99.99
331.0,100.00
330.0,99.97
329.0,100.00
328.0,100.03
327.0,99.99
326.0,100.00
325.0,100.01
324.0,99.97
323.0,99.99
322.0,99.98
321.0,99.99
320.0,100.03
319.0,100.03
318.0,100.01
317.0,100.02
316.0,100.03
315.0,100.01
314.0,100.00
313.0,100.02
312.0,100.01
311.0,99.98
310.0,100.00
309.0,100.01
308.0,100.00
307.0,100.03
306.0,100.01
305.0,100.01
304.0,100.00
303.0,100.01
302.0,100.01
301.0,100.00
300.0,100.01
299.0,100.02
298.0,100.00
297.0,100.00
296.0,100.00
295.0,100.03
294.0,100.02
293.0,100.03
292.0,100.04
291.0,100.03
290.0,100.01
289.0,100.02
288.0,100.01
287.0,100.01
286.0,100.00
285.0,99.99
284.0,99.99
283.0,100.01
282.0,100.02
281.0,100.01
280.0,100.00
279.0,100.00
278.0,100.00
277.0,99.98
276.0,99.98
275.0,99.98
274.0,99.98
273.0,100.01
272.0,100.03
271.0,100.01
270.0,100.00
269.0,99.99
268.0,100.00
267.0,100.00
266.0,99.98
265.0,100.00
264.0,100.01
263.0,100.00
262.0,100.00
261.0,99.98
260.0,99.99
259.0,100.01
258.0,100.00
257.0,99.99
256.0,99.98
255.0,99.99
254.0,99.99
253.0,100.00
252.0,100.02
251.0,100.02
250.0,100.00
